BEGIN_SCAN_DATA
	FORMAT=CC-Export V1.9                  
	FILE_CREATION_DATE=08-Jun-2024 21:44:58
	LAST_MODIFIED=08-Jun-2024 21:44:58
	BEGIN_SCAN  1
		TASK_NAME=DOSE
		GROUP_NAME=LR_52.0
		PROGRAM=BeamAdjust 2.3.0.25
		COMMENT=G000, E221_c-dhex3.6_4
		MEAS_DATE=08-Jun-2024 21:44:49
		LINAC=HIT
		MODALITY=P
		INPLANE_AXIS_DIR=TARGET_GUN
		CROSSPLANE_AXIS_DIR=LEFT_RIGHT
		DEPTH_AXIS_DIR=UP_DOWN
		ENERGY=0.00
		SSD=0.00
		FIELD_INPLANE=50.00
		FIELD_CROSSPLANE=50.00
		FIELD_TYPE=RECTANGULAR
		GANTRY=0.00
		GANTRY_UPRIGHT_POSITION=0
		GANTRY_ROTATION=CW
		COLL_ANGLE=90.00
		SCAN_DEVICE=OCTAVIUS_1600_XDR
		ELECTROMETER=DETECTOR_INTERFACE
		ELECTROMETER_SN=5987
		DETECTOR=OCTAVIUS_1600_XDR
		DETECTOR_SN=191760
		FILTER=FF
		SCAN_CURVETYPE=CROSSPLANE_PROFILE
		SCAN_DEPTH=0.00
		SCAN_OFFAXIS_INPLANE=-75.00
		SCAN_ANGLE=0.00
		SCAN_DIAGONAL=NOT_DIAGONAL
		MEAS_PRESET=TIME_PRESET
		MEAS_TIME=52.000
		MEAS_UNIT=GY
		PRESSURE=995.30
		TEMPERATURE=19.10
		NORM_TEMPERATURE=20.00
		CORRECTION_FACTOR=1.1270
		CALIBRATION_FILE=C:\Users\Public\Documents\PTW\Common Files\Calibration Files\230554201_OCTAVIUS1600XDR_191760.cal
		CORRECTIONS=AIR_DENSITY_CORR;FACTOR_CORR;
		BEGIN_DATA
			-75.00		578.14E-06		#1521
			-70.00		293.82E-06		#1490
			-65.00		450.25E-06		#1459
			-60.00		537.30E-06		#1428
			-55.00		474.38E-06		#1397
			-50.00		460.27E-06		#1366
			-45.00		779.99E-06		#1335
			-40.00		632.11E-06		#1304
			-35.00		582.00E-06		#1273
			-30.00		722.48E-06		#1215
			-25.00		1.2869E-03		#1143
			-20.00		898.82E-06		#1071
			-15.00		994.36E-06		#999
			-10.00		784.38E-06		#927
			-5.00		851.36E-06		#855
			0.00		727.19E-06		#783
			5.00		908.22E-06		#711
			10.00		687.50E-06		#639
			15.00		1.1361E-03		#567
			20.00		773.19E-06		#495
			25.00		862.41E-06		#423
			30.00		190.60E-06		#351
			35.00		1.1964E-03		#279
			40.00		1.2755E-03		#248
			45.00		772.51E-06		#217
			50.00		426.17E-06		#186
			55.00		612.87E-06		#155
			60.00		368.72E-06		#124
			65.00		688.52E-06		#93
			70.00		659.78E-06		#62
			75.00		-216.47E-06		#31
		END_DATA
	END_SCAN  1
	BEGIN_SCAN  2
		TASK_NAME=DOSE
		GROUP_NAME=LR_52.0
		PROGRAM=BeamAdjust 2.3.0.25
		COMMENT=G000, E221_c-dhex3.6_4
		MEAS_DATE=08-Jun-2024 21:44:49
		LINAC=HIT
		MODALITY=P
		INPLANE_AXIS_DIR=TARGET_GUN
		CROSSPLANE_AXIS_DIR=LEFT_RIGHT
		DEPTH_AXIS_DIR=UP_DOWN
		ENERGY=0.00
		SSD=0.00
		FIELD_INPLANE=50.00
		FIELD_CROSSPLANE=50.00
		FIELD_TYPE=RECTANGULAR
		GANTRY=0.00
		GANTRY_UPRIGHT_POSITION=0
		GANTRY_ROTATION=CW
		COLL_ANGLE=90.00
		SCAN_DEVICE=OCTAVIUS_1600_XDR
		ELECTROMETER=DETECTOR_INTERFACE
		ELECTROMETER_SN=5987
		DETECTOR=OCTAVIUS_1600_XDR
		DETECTOR_SN=191760
		FILTER=FF
		SCAN_CURVETYPE=CROSSPLANE_PROFILE
		SCAN_DEPTH=0.00
		SCAN_OFFAXIS_INPLANE=-70.00
		SCAN_ANGLE=0.00
		SCAN_DIAGONAL=NOT_DIAGONAL
		MEAS_PRESET=TIME_PRESET
		MEAS_TIME=52.000
		MEAS_UNIT=GY
		PRESSURE=995.30
		TEMPERATURE=19.10
		NORM_TEMPERATURE=20.00
		CORRECTION_FACTOR=1.1270
		CALIBRATION_FILE=C:\Users\Public\Documents\PTW\Common Files\Calibration Files\230554201_OCTAVIUS1600XDR_191760.cal
		CORRECTIONS=AIR_DENSITY_CORR;FACTOR_CORR;
		BEGIN_DATA
			-75.00		507.28E-06		#1520
			-70.00		622.35E-06		#1489
			-65.00		751.53E-06		#1458
			-60.00		875.71E-06		#1427
			-55.00		1.3714E-03		#1396
			-50.00		1.5704E-03		#1365
			-45.00		2.0762E-03		#1334
			-40.00		1.7367E-03		#1303
			-35.00		2.1128E-03		#1272
			-30.00		2.1556E-03		#1214
			-25.00		1.7405E-03		#1142
			-20.00		1.7721E-03		#1070
			-15.00		1.6936E-03		#998
			-10.00		2.0257E-03		#926
			-5.00		2.4853E-03		#854
			0.00		2.2065E-03		#782
			5.00		1.8281E-03		#710
			10.00		1.9551E-03		#638
			15.00		2.0832E-03		#566
			20.00		1.4178E-03		#494
			25.00		2.1906E-03		#422
			30.00		2.0691E-03		#350
			35.00		1.9283E-03		#278
			40.00		1.8574E-03		#247
			45.00		1.4237E-03		#216
			50.00		1.9982E-03		#185
			55.00		1.3911E-03		#154
			60.00		1.1808E-03		#123
			65.00		691.97E-06		#92
			70.00		445.62E-06		#61
			75.00		681.81E-06		#30
		END_DATA
	END_SCAN  2
	BEGIN_SCAN  3
		TASK_NAME=DOSE
		GROUP_NAME=LR_52.0
		PROGRAM=BeamAdjust 2.3.0.25
		COMMENT=G000, E221_c-dhex3.6_4
		MEAS_DATE=08-Jun-2024 21:44:49
		LINAC=HIT
		MODALITY=P
		INPLANE_AXIS_DIR=TARGET_GUN
		CROSSPLANE_AXIS_DIR=LEFT_RIGHT
		DEPTH_AXIS_DIR=UP_DOWN
		ENERGY=0.00
		SSD=0.00
		FIELD_INPLANE=50.00
		FIELD_CROSSPLANE=50.00
		FIELD_TYPE=RECTANGULAR
		GANTRY=0.00
		GANTRY_UPRIGHT_POSITION=0
		GANTRY_ROTATION=CW
		COLL_ANGLE=90.00
		SCAN_DEVICE=OCTAVIUS_1600_XDR
		ELECTROMETER=DETECTOR_INTERFACE
		ELECTROMETER_SN=5987
		DETECTOR=OCTAVIUS_1600_XDR
		DETECTOR_SN=191760
		FILTER=FF
		SCAN_CURVETYPE=CROSSPLANE_PROFILE
		SCAN_DEPTH=0.00
		SCAN_OFFAXIS_INPLANE=-65.00
		SCAN_ANGLE=0.00
		SCAN_DIAGONAL=NOT_DIAGONAL
		MEAS_PRESET=TIME_PRESET
		MEAS_TIME=52.000
		MEAS_UNIT=GY
		PRESSURE=995.30
		TEMPERATURE=19.10
		NORM_TEMPERATURE=20.00
		CORRECTION_FACTOR=1.1270
		CALIBRATION_FILE=C:\Users\Public\Documents\PTW\Common Files\Calibration Files\230554201_OCTAVIUS1600XDR_191760.cal
		CORRECTIONS=AIR_DENSITY_CORR;FACTOR_CORR;
		BEGIN_DATA
			-75.00		377.35E-06		#1519
			-70.00		412.46E-06		#1488
			-65.00		1.6915E-03		#1457
			-60.00		4.5274E-03		#1426
			-55.00		7.7375E-03		#1395
			-50.00		9.4209E-03		#1364
			-45.00		9.4249E-03		#1333
			-40.00		9.4722E-03		#1302
			-35.00		9.7713E-03		#1271
			-30.00		9.6639E-03		#1213
			-25.00		9.6145E-03		#1141
			-20.00		9.5559E-03		#1069
			-15.00		9.9010E-03		#997
			-10.00		10.030E-03		#925
			-5.00		10.076E-03		#853
			0.00		9.9618E-03		#781
			5.00		10.039E-03		#709
			10.00		10.221E-03		#637
			15.00		10.205E-03		#565
			20.00		10.016E-03		#493
			25.00		10.601E-03		#421
			30.00		10.122E-03		#349
			35.00		10.769E-03		#277
			40.00		10.056E-03		#246
			45.00		10.608E-03		#215
			50.00		10.222E-03		#184
			55.00		8.8959E-03		#153
			60.00		4.9353E-03		#122
			65.00		1.5433E-03		#91
			70.00		679.03E-06		#60
			75.00		333.63E-06		#29
		END_DATA
	END_SCAN  3
	BEGIN_SCAN  4
		TASK_NAME=DOSE
		GROUP_NAME=LR_52.0
		PROGRAM=BeamAdjust 2.3.0.25
		COMMENT=G000, E221_c-dhex3.6_4
		MEAS_DATE=08-Jun-2024 21:44:49
		LINAC=HIT
		MODALITY=P
		INPLANE_AXIS_DIR=TARGET_GUN
		CROSSPLANE_AXIS_DIR=LEFT_RIGHT
		DEPTH_AXIS_DIR=UP_DOWN
		ENERGY=0.00
		SSD=0.00
		FIELD_INPLANE=50.00
		FIELD_CROSSPLANE=50.00
		FIELD_TYPE=RECTANGULAR
		GANTRY=0.00
		GANTRY_UPRIGHT_POSITION=0
		GANTRY_ROTATION=CW
		COLL_ANGLE=90.00
		SCAN_DEVICE=OCTAVIUS_1600_XDR
		ELECTROMETER=DETECTOR_INTERFACE
		ELECTROMETER_SN=5987
		DETECTOR=OCTAVIUS_1600_XDR
		DETECTOR_SN=191760
		FILTER=FF
		SCAN_CURVETYPE=CROSSPLANE_PROFILE
		SCAN_DEPTH=0.00
		SCAN_OFFAXIS_INPLANE=-60.00
		SCAN_ANGLE=0.00
		SCAN_DIAGONAL=NOT_DIAGONAL
		MEAS_PRESET=TIME_PRESET
		MEAS_TIME=52.000
		MEAS_UNIT=GY
		PRESSURE=995.30
		TEMPERATURE=19.10
		NORM_TEMPERATURE=20.00
		CORRECTION_FACTOR=1.1270
		CALIBRATION_FILE=C:\Users\Public\Documents\PTW\Common Files\Calibration Files\230554201_OCTAVIUS1600XDR_191760.cal
		CORRECTIONS=AIR_DENSITY_CORR;FACTOR_CORR;
		BEGIN_DATA
			-75.00		529.06E-06		#1518
			-70.00		994.66E-06		#1487
			-65.00		4.8061E-03		#1456
			-60.00		20.160E-03		#1425
			-55.00		38.111E-03		#1394
			-50.00		43.232E-03		#1363
			-45.00		43.887E-03		#1332
			-40.00		44.247E-03		#1301
			-35.00		44.142E-03		#1270
			-30.00		43.773E-03		#1212
			-25.00		44.001E-03		#1140
			-20.00		44.336E-03		#1068
			-15.00		43.956E-03		#996
			-10.00		44.695E-03		#924
			-5.00		44.681E-03		#852
			0.00		43.982E-03		#780
			5.00		44.606E-03		#708
			10.00		45.220E-03		#636
			15.00		45.219E-03		#564
			20.00		45.604E-03		#492
			25.00		45.395E-03		#420
			30.00		46.527E-03		#348
			35.00		45.735E-03		#276
			40.00		46.034E-03		#245
			45.00		46.246E-03		#214
			50.00		45.958E-03		#183
			55.00		40.791E-03		#152
			60.00		21.643E-03		#121
			65.00		4.9197E-03		#90
			70.00		1.0292E-03		#59
			75.00		861.71E-06		#28
		END_DATA
	END_SCAN  4
	BEGIN_SCAN  5
		TASK_NAME=DOSE
		GROUP_NAME=LR_52.0
		PROGRAM=BeamAdjust 2.3.0.25
		COMMENT=G000, E221_c-dhex3.6_4
		MEAS_DATE=08-Jun-2024 21:44:49
		LINAC=HIT
		MODALITY=P
		INPLANE_AXIS_DIR=TARGET_GUN
		CROSSPLANE_AXIS_DIR=LEFT_RIGHT
		DEPTH_AXIS_DIR=UP_DOWN
		ENERGY=0.00
		SSD=0.00
		FIELD_INPLANE=50.00
		FIELD_CROSSPLANE=50.00
		FIELD_TYPE=RECTANGULAR
		GANTRY=0.00
		GANTRY_UPRIGHT_POSITION=0
		GANTRY_ROTATION=CW
		COLL_ANGLE=90.00
		SCAN_DEVICE=OCTAVIUS_1600_XDR
		ELECTROMETER=DETECTOR_INTERFACE
		ELECTROMETER_SN=5987
		DETECTOR=OCTAVIUS_1600_XDR
		DETECTOR_SN=191760
		FILTER=FF
		SCAN_CURVETYPE=CROSSPLANE_PROFILE
		SCAN_DEPTH=0.00
		SCAN_OFFAXIS_INPLANE=-55.00
		SCAN_ANGLE=0.00
		SCAN_DIAGONAL=NOT_DIAGONAL
		MEAS_PRESET=TIME_PRESET
		MEAS_TIME=52.000
		MEAS_UNIT=GY
		PRESSURE=995.30
		TEMPERATURE=19.10
		NORM_TEMPERATURE=20.00
		CORRECTION_FACTOR=1.1270
		CALIBRATION_FILE=C:\Users\Public\Documents\PTW\Common Files\Calibration Files\230554201_OCTAVIUS1600XDR_191760.cal
		CORRECTIONS=AIR_DENSITY_CORR;FACTOR_CORR;
		BEGIN_DATA
			-75.00		494.15E-06		#1517
			-70.00		1.6090E-03		#1486
			-65.00		8.0625E-03		#1455
			-60.00		38.291E-03		#1424
			-55.00		72.070E-03		#1393
			-50.00		80.328E-03		#1362
			-45.00		81.248E-03		#1331
			-40.00		81.238E-03		#1300
			-35.00		80.940E-03		#1269
			-30.00		81.143E-03		#1211
			-25.00		81.243E-03		#1139
			-20.00		81.111E-03		#1067
			-15.00		81.384E-03		#995
			-10.00		81.158E-03		#923
			-5.00		81.301E-03		#851
			0.00		80.512E-03		#779
			5.00		81.004E-03		#707
			10.00		81.107E-03		#635
			15.00		81.069E-03		#563
			20.00		82.131E-03		#491
			25.00		81.160E-03		#419
			30.00		82.060E-03		#347
			35.00		82.982E-03		#275
			40.00		82.577E-03		#244
			45.00		83.822E-03		#213
			50.00		82.199E-03		#182
			55.00		72.465E-03		#151
			60.00		37.453E-03		#120
			65.00		7.7580E-03		#89
			70.00		1.4849E-03		#58
			75.00		72.436E-06		#27
		END_DATA
	END_SCAN  5
	BEGIN_SCAN  6
		TASK_NAME=DOSE
		GROUP_NAME=LR_52.0
		PROGRAM=BeamAdjust 2.3.0.25
		COMMENT=G000, E221_c-dhex3.6_4
		MEAS_DATE=08-Jun-2024 21:44:49
		LINAC=HIT
		MODALITY=P
		INPLANE_AXIS_DIR=TARGET_GUN
		CROSSPLANE_AXIS_DIR=LEFT_RIGHT
		DEPTH_AXIS_DIR=UP_DOWN
		ENERGY=0.00
		SSD=0.00
		FIELD_INPLANE=50.00
		FIELD_CROSSPLANE=50.00
		FIELD_TYPE=RECTANGULAR
		GANTRY=0.00
		GANTRY_UPRIGHT_POSITION=0
		GANTRY_ROTATION=CW
		COLL_ANGLE=90.00
		SCAN_DEVICE=OCTAVIUS_1600_XDR
		ELECTROMETER=DETECTOR_INTERFACE
		ELECTROMETER_SN=5987
		DETECTOR=OCTAVIUS_1600_XDR
		DETECTOR_SN=191760
		FILTER=FF
		SCAN_CURVETYPE=CROSSPLANE_PROFILE
		SCAN_DEPTH=0.00
		SCAN_OFFAXIS_INPLANE=-50.00
		SCAN_ANGLE=0.00
		SCAN_DIAGONAL=NOT_DIAGONAL
		MEAS_PRESET=TIME_PRESET
		MEAS_TIME=52.000
		MEAS_UNIT=GY
		PRESSURE=995.30
		TEMPERATURE=19.10
		NORM_TEMPERATURE=20.00
		CORRECTION_FACTOR=1.1270
		CALIBRATION_FILE=C:\Users\Public\Documents\PTW\Common Files\Calibration Files\230554201_OCTAVIUS1600XDR_191760.cal
		CORRECTIONS=AIR_DENSITY_CORR;FACTOR_CORR;
		BEGIN_DATA
			-75.00		832.79E-06		#1516
			-70.00		1.6653E-03		#1485
			-65.00		8.9891E-03		#1454
			-60.00		43.081E-03		#1423
			-55.00		80.610E-03		#1392
			-50.00		90.820E-03		#1361
			-45.00		91.398E-03		#1330
			-40.00		91.779E-03		#1299
			-35.00		91.286E-03		#1268
			-30.00		91.405E-03		#1210
			-25.00		90.037E-03		#1138
			-20.00		90.303E-03		#1066
			-15.00		90.460E-03		#994
			-10.00		90.269E-03		#922
			-5.00		90.892E-03		#850
			0.00		90.087E-03		#778
			5.00		90.243E-03		#706
			10.00		90.572E-03		#634
			15.00		90.875E-03		#562
			20.00		91.572E-03		#490
			25.00		90.947E-03		#418
			30.00		90.811E-03		#346
			35.00		91.620E-03		#274
			40.00		91.900E-03		#243
			45.00		91.689E-03		#212
			50.00		90.560E-03		#181
			55.00		79.966E-03		#150
			60.00		40.685E-03		#119
			65.00		8.6764E-03		#88
			70.00		1.9359E-03		#57
			75.00		528.40E-06		#26
		END_DATA
	END_SCAN  6
	BEGIN_SCAN  7
		TASK_NAME=DOSE
		GROUP_NAME=LR_52.0
		PROGRAM=BeamAdjust 2.3.0.25
		COMMENT=G000, E221_c-dhex3.6_4
		MEAS_DATE=08-Jun-2024 21:44:49
		LINAC=HIT
		MODALITY=P
		INPLANE_AXIS_DIR=TARGET_GUN
		CROSSPLANE_AXIS_DIR=LEFT_RIGHT
		DEPTH_AXIS_DIR=UP_DOWN
		ENERGY=0.00
		SSD=0.00
		FIELD_INPLANE=50.00
		FIELD_CROSSPLANE=50.00
		FIELD_TYPE=RECTANGULAR
		GANTRY=0.00
		GANTRY_UPRIGHT_POSITION=0
		GANTRY_ROTATION=CW
		COLL_ANGLE=90.00
		SCAN_DEVICE=OCTAVIUS_1600_XDR
		ELECTROMETER=DETECTOR_INTERFACE
		ELECTROMETER_SN=5987
		DETECTOR=OCTAVIUS_1600_XDR
		DETECTOR_SN=191760
		FILTER=FF
		SCAN_CURVETYPE=CROSSPLANE_PROFILE
		SCAN_DEPTH=0.00
		SCAN_OFFAXIS_INPLANE=-45.00
		SCAN_ANGLE=0.00
		SCAN_DIAGONAL=NOT_DIAGONAL
		MEAS_PRESET=TIME_PRESET
		MEAS_TIME=52.000
		MEAS_UNIT=GY
		PRESSURE=995.30
		TEMPERATURE=19.10
		NORM_TEMPERATURE=20.00
		CORRECTION_FACTOR=1.1270
		CALIBRATION_FILE=C:\Users\Public\Documents\PTW\Common Files\Calibration Files\230554201_OCTAVIUS1600XDR_191760.cal
		CORRECTIONS=AIR_DENSITY_CORR;FACTOR_CORR;
		BEGIN_DATA
			-75.00		1.1117E-03		#1515
			-70.00		1.5662E-03		#1484
			-65.00		9.5858E-03		#1453
			-60.00		43.376E-03		#1422
			-55.00		81.427E-03		#1391
			-50.00		91.834E-03		#1360
			-45.00		92.619E-03		#1329
			-40.00		91.866E-03		#1298
			-35.00		92.153E-03		#1267
			-30.00		91.220E-03		#1209
			-25.00		91.565E-03		#1137
			-20.00		90.597E-03		#1065
			-15.00		91.014E-03		#993
			-10.00		91.266E-03		#921
			-5.00		90.934E-03		#849
			0.00		91.242E-03		#777
			5.00		90.884E-03		#705
			10.00		90.640E-03		#633
			15.00		90.493E-03		#561
			20.00		90.904E-03		#489
			25.00		91.303E-03		#417
			30.00		91.668E-03		#345
			35.00		91.466E-03		#273
			40.00		92.856E-03		#242
			45.00		93.001E-03		#211
			50.00		92.196E-03		#180
			55.00		80.304E-03		#149
			60.00		41.856E-03		#118
			65.00		9.2757E-03		#87
			70.00		1.7411E-03		#56
			75.00		465.03E-06		#25
		END_DATA
	END_SCAN  7
	BEGIN_SCAN  8
		TASK_NAME=DOSE
		GROUP_NAME=LR_52.0
		PROGRAM=BeamAdjust 2.3.0.25
		COMMENT=G000, E221_c-dhex3.6_4
		MEAS_DATE=08-Jun-2024 21:44:49
		LINAC=HIT
		MODALITY=P
		INPLANE_AXIS_DIR=TARGET_GUN
		CROSSPLANE_AXIS_DIR=LEFT_RIGHT
		DEPTH_AXIS_DIR=UP_DOWN
		ENERGY=0.00
		SSD=0.00
		FIELD_INPLANE=50.00
		FIELD_CROSSPLANE=50.00
		FIELD_TYPE=RECTANGULAR
		GANTRY=0.00
		GANTRY_UPRIGHT_POSITION=0
		GANTRY_ROTATION=CW
		COLL_ANGLE=90.00
		SCAN_DEVICE=OCTAVIUS_1600_XDR
		ELECTROMETER=DETECTOR_INTERFACE
		ELECTROMETER_SN=5987
		DETECTOR=OCTAVIUS_1600_XDR
		DETECTOR_SN=191760
		FILTER=FF
		SCAN_CURVETYPE=CROSSPLANE_PROFILE
		SCAN_DEPTH=0.00
		SCAN_OFFAXIS_INPLANE=-40.00
		SCAN_ANGLE=0.00
		SCAN_DIAGONAL=NOT_DIAGONAL
		MEAS_PRESET=TIME_PRESET
		MEAS_TIME=52.000
		MEAS_UNIT=GY
		PRESSURE=995.30
		TEMPERATURE=19.10
		NORM_TEMPERATURE=20.00
		CORRECTION_FACTOR=1.1270
		CALIBRATION_FILE=C:\Users\Public\Documents\PTW\Common Files\Calibration Files\230554201_OCTAVIUS1600XDR_191760.cal
		CORRECTIONS=AIR_DENSITY_CORR;FACTOR_CORR;
		BEGIN_DATA
			-75.00		676.75E-06		#1514
			-70.00		1.9449E-03		#1483
			-65.00		9.6413E-03		#1452
			-60.00		43.101E-03		#1421
			-55.00		81.655E-03		#1390
			-50.00		91.959E-03		#1359
			-45.00		92.649E-03		#1328
			-40.00		92.510E-03		#1297
			-35.00		92.328E-03		#1266
			-30.00		91.396E-03		#1208
			-25.00		91.619E-03		#1136
			-20.00		90.787E-03		#1064
			-15.00		90.849E-03		#992
			-10.00		91.369E-03		#920
			-5.00		90.868E-03		#848
			0.00		91.086E-03		#776
			5.00		91.237E-03		#704
			10.00		91.150E-03		#632
			15.00		90.729E-03		#560
			20.00		91.589E-03		#488
			25.00		91.874E-03		#416
			30.00		91.791E-03		#344
			35.00		92.171E-03		#272
			40.00		92.841E-03		#241
			45.00		92.603E-03		#210
			50.00		91.111E-03		#179
			55.00		81.243E-03		#148
			60.00		42.050E-03		#117
			65.00		9.2772E-03		#86
			70.00		1.6643E-03		#55
			75.00		1.1049E-03		#24
		END_DATA
	END_SCAN  8
	BEGIN_SCAN  9
		TASK_NAME=DOSE
		GROUP_NAME=LR_52.0
		PROGRAM=BeamAdjust 2.3.0.25
		COMMENT=G000, E221_c-dhex3.6_4
		MEAS_DATE=08-Jun-2024 21:44:49
		LINAC=HIT
		MODALITY=P
		INPLANE_AXIS_DIR=TARGET_GUN
		CROSSPLANE_AXIS_DIR=LEFT_RIGHT
		DEPTH_AXIS_DIR=UP_DOWN
		ENERGY=0.00
		SSD=0.00
		FIELD_INPLANE=50.00
		FIELD_CROSSPLANE=50.00
		FIELD_TYPE=RECTANGULAR
		GANTRY=0.00
		GANTRY_UPRIGHT_POSITION=0
		GANTRY_ROTATION=CW
		COLL_ANGLE=90.00
		SCAN_DEVICE=OCTAVIUS_1600_XDR
		ELECTROMETER=DETECTOR_INTERFACE
		ELECTROMETER_SN=5987
		DETECTOR=OCTAVIUS_1600_XDR
		DETECTOR_SN=191760
		FILTER=FF
		SCAN_CURVETYPE=CROSSPLANE_PROFILE
		SCAN_DEPTH=0.00
		SCAN_OFFAXIS_INPLANE=-35.00
		SCAN_ANGLE=0.00
		SCAN_DIAGONAL=NOT_DIAGONAL
		MEAS_PRESET=TIME_PRESET
		MEAS_TIME=52.000
		MEAS_UNIT=GY
		PRESSURE=995.30
		TEMPERATURE=19.10
		NORM_TEMPERATURE=20.00
		CORRECTION_FACTOR=1.1270
		CALIBRATION_FILE=C:\Users\Public\Documents\PTW\Common Files\Calibration Files\230554201_OCTAVIUS1600XDR_191760.cal
		CORRECTIONS=AIR_DENSITY_CORR;FACTOR_CORR;
		BEGIN_DATA
			-75.00		1.1594E-03		#1513
			-70.00		1.6989E-03		#1482
			-65.00		9.7597E-03		#1451
			-60.00		43.276E-03		#1420
			-55.00		81.237E-03		#1389
			-50.00		91.814E-03		#1358
			-45.00		92.861E-03		#1327
			-40.00		92.665E-03		#1296
			-35.00		91.971E-03		#1265
			-30.00		90.813E-03		#1207
			-25.00		90.612E-03		#1135
			-20.00		90.863E-03		#1063
			-15.00		90.491E-03		#991
			-10.00		90.372E-03		#919
			-5.00		90.558E-03		#847
			0.00		90.581E-03		#775
			5.00		90.409E-03		#703
			10.00		90.738E-03		#631
			15.00		90.058E-03		#559
			20.00		91.440E-03		#487
			25.00		91.829E-03		#415
			30.00		91.943E-03		#343
			35.00		91.921E-03		#271
			40.00		92.818E-03		#240
			45.00		92.054E-03		#209
			50.00		91.041E-03		#178
			55.00		80.610E-03		#147
			60.00		42.188E-03		#116
			65.00		8.9811E-03		#85
			70.00		1.8257E-03		#54
			75.00		406.87E-06		#23
		END_DATA
	END_SCAN  9
	BEGIN_SCAN  10
		TASK_NAME=DOSE
		GROUP_NAME=LR_52.0
		PROGRAM=BeamAdjust 2.3.0.25
		COMMENT=G000, E221_c-dhex3.6_4
		MEAS_DATE=08-Jun-2024 21:44:49
		LINAC=HIT
		MODALITY=P
		INPLANE_AXIS_DIR=TARGET_GUN
		CROSSPLANE_AXIS_DIR=LEFT_RIGHT
		DEPTH_AXIS_DIR=UP_DOWN
		ENERGY=0.00
		SSD=0.00
		FIELD_INPLANE=50.00
		FIELD_CROSSPLANE=50.00
		FIELD_TYPE=RECTANGULAR
		GANTRY=0.00
		GANTRY_UPRIGHT_POSITION=0
		GANTRY_ROTATION=CW
		COLL_ANGLE=90.00
		SCAN_DEVICE=OCTAVIUS_1600_XDR
		ELECTROMETER=DETECTOR_INTERFACE
		ELECTROMETER_SN=5987
		DETECTOR=OCTAVIUS_1600_XDR
		DETECTOR_SN=191760
		FILTER=FF
		SCAN_CURVETYPE=CROSSPLANE_PROFILE
		SCAN_DEPTH=0.00
		SCAN_OFFAXIS_INPLANE=-32.50
		SCAN_ANGLE=0.00
		SCAN_DIAGONAL=NOT_DIAGONAL
		MEAS_PRESET=TIME_PRESET
		MEAS_TIME=52.000
		MEAS_UNIT=GY
		PRESSURE=995.30
		TEMPERATURE=19.10
		NORM_TEMPERATURE=20.00
		CORRECTION_FACTOR=1.1270
		CALIBRATION_FILE=C:\Users\Public\Documents\PTW\Common Files\Calibration Files\230554201_OCTAVIUS1600XDR_191760.cal
		CORRECTIONS=AIR_DENSITY_CORR;FACTOR_CORR;
		BEGIN_DATA
			-32.50		90.760E-03		#1242
			-30.00		90.522E-03		#1206
			-27.50		90.647E-03		#1170
			-25.00		90.586E-03		#1134
			-22.50		89.649E-03		#1098
			-20.00		90.244E-03		#1062
			-17.50		90.303E-03		#1026
			-15.00		90.275E-03		#990
			-12.50		90.206E-03		#954
			-10.00		89.959E-03		#918
			-7.50		89.900E-03		#882
			-5.00		89.759E-03		#846
			-2.50		90.031E-03		#810
			0.00		89.988E-03		#774
			2.50		89.421E-03		#738
			5.00		90.297E-03		#702
			7.50		89.769E-03		#666
			10.00		89.840E-03		#630
			12.50		90.512E-03		#594
			15.00		89.764E-03		#558
			17.50		90.604E-03		#522
			20.00		90.441E-03		#486
			22.50		91.363E-03		#450
			25.00		90.923E-03		#414
			27.50		91.323E-03		#378
			30.00		91.567E-03		#342
			32.50		90.980E-03		#306
		END_DATA
	END_SCAN  10
	BEGIN_SCAN  11
		TASK_NAME=DOSE
		GROUP_NAME=LR_52.0
		PROGRAM=BeamAdjust 2.3.0.25
		COMMENT=G000, E221_c-dhex3.6_4
		MEAS_DATE=08-Jun-2024 21:44:49
		LINAC=HIT
		MODALITY=P
		INPLANE_AXIS_DIR=TARGET_GUN
		CROSSPLANE_AXIS_DIR=LEFT_RIGHT
		DEPTH_AXIS_DIR=UP_DOWN
		ENERGY=0.00
		SSD=0.00
		FIELD_INPLANE=50.00
		FIELD_CROSSPLANE=50.00
		FIELD_TYPE=RECTANGULAR
		GANTRY=0.00
		GANTRY_UPRIGHT_POSITION=0
		GANTRY_ROTATION=CW
		COLL_ANGLE=90.00
		SCAN_DEVICE=OCTAVIUS_1600_XDR
		ELECTROMETER=DETECTOR_INTERFACE
		ELECTROMETER_SN=5987
		DETECTOR=OCTAVIUS_1600_XDR
		DETECTOR_SN=191760
		FILTER=FF
		SCAN_CURVETYPE=CROSSPLANE_PROFILE
		SCAN_DEPTH=0.00
		SCAN_OFFAXIS_INPLANE=-30.00
		SCAN_ANGLE=0.00
		SCAN_DIAGONAL=NOT_DIAGONAL
		MEAS_PRESET=TIME_PRESET
		MEAS_TIME=52.000
		MEAS_UNIT=GY
		PRESSURE=995.30
		TEMPERATURE=19.10
		NORM_TEMPERATURE=20.00
		CORRECTION_FACTOR=1.1270
		CALIBRATION_FILE=C:\Users\Public\Documents\PTW\Common Files\Calibration Files\230554201_OCTAVIUS1600XDR_191760.cal
		CORRECTIONS=AIR_DENSITY_CORR;FACTOR_CORR;
		BEGIN_DATA
			-75.00		724.99E-06		#1512
			-70.00		1.9028E-03		#1481
			-65.00		9.4773E-03		#1450
			-60.00		43.008E-03		#1419
			-55.00		80.753E-03		#1388
			-50.00		90.466E-03		#1357
			-45.00		91.524E-03		#1326
			-40.00		91.878E-03		#1295
			-35.00		91.185E-03		#1264
			-32.50		90.629E-03		#1241
			-30.00		90.113E-03		#1205
			-27.50		89.638E-03		#1169
			-25.00		90.276E-03		#1133
			-22.50		89.854E-03		#1097
			-20.00		90.079E-03		#1061
			-17.50		90.257E-03		#1025
			-15.00		89.746E-03		#989
			-12.50		90.006E-03		#953
			-10.00		89.435E-03		#917
			-7.50		90.082E-03		#881
			-5.00		89.770E-03		#845
			-2.50		90.068E-03		#809
			0.00		89.629E-03		#773
			2.50		90.242E-03		#737
			5.00		89.631E-03		#701
			7.50		90.540E-03		#665
			10.00		89.341E-03		#629
			12.50		90.325E-03		#593
			15.00		89.653E-03		#557
			17.50		89.794E-03		#521
			20.00		90.181E-03		#485
			22.50		90.312E-03		#449
			25.00		90.080E-03		#413
			27.50		90.795E-03		#377
			30.00		90.687E-03		#341
			32.50		91.021E-03		#305
			35.00		91.256E-03		#270
			40.00		92.271E-03		#239
			45.00		91.053E-03		#208
			50.00		90.711E-03		#177
			55.00		79.796E-03		#146
			60.00		41.621E-03		#115
			65.00		8.8569E-03		#84
			70.00		1.9164E-03		#53
			75.00		286.92E-06		#22
		END_DATA
	END_SCAN  11
	BEGIN_SCAN  12
		TASK_NAME=DOSE
		GROUP_NAME=LR_52.0
		PROGRAM=BeamAdjust 2.3.0.25
		COMMENT=G000, E221_c-dhex3.6_4
		MEAS_DATE=08-Jun-2024 21:44:49
		LINAC=HIT
		MODALITY=P
		INPLANE_AXIS_DIR=TARGET_GUN
		CROSSPLANE_AXIS_DIR=LEFT_RIGHT
		DEPTH_AXIS_DIR=UP_DOWN
		ENERGY=0.00
		SSD=0.00
		FIELD_INPLANE=50.00
		FIELD_CROSSPLANE=50.00
		FIELD_TYPE=RECTANGULAR
		GANTRY=0.00
		GANTRY_UPRIGHT_POSITION=0
		GANTRY_ROTATION=CW
		COLL_ANGLE=90.00
		SCAN_DEVICE=OCTAVIUS_1600_XDR
		ELECTROMETER=DETECTOR_INTERFACE
		ELECTROMETER_SN=5987
		DETECTOR=OCTAVIUS_1600_XDR
		DETECTOR_SN=191760
		FILTER=FF
		SCAN_CURVETYPE=CROSSPLANE_PROFILE
		SCAN_DEPTH=0.00
		SCAN_OFFAXIS_INPLANE=-27.50
		SCAN_ANGLE=0.00
		SCAN_DIAGONAL=NOT_DIAGONAL
		MEAS_PRESET=TIME_PRESET
		MEAS_TIME=52.000
		MEAS_UNIT=GY
		PRESSURE=995.30
		TEMPERATURE=19.10
		NORM_TEMPERATURE=20.00
		CORRECTION_FACTOR=1.1270
		CALIBRATION_FILE=C:\Users\Public\Documents\PTW\Common Files\Calibration Files\230554201_OCTAVIUS1600XDR_191760.cal
		CORRECTIONS=AIR_DENSITY_CORR;FACTOR_CORR;
		BEGIN_DATA
			-32.50		90.541E-03		#1240
			-30.00		90.373E-03		#1204
			-27.50		89.544E-03		#1168
			-25.00		90.044E-03		#1132
			-22.50		90.135E-03		#1096
			-20.00		90.062E-03		#1060
			-17.50		88.833E-03		#1024
			-15.00		90.175E-03		#988
			-12.50		89.767E-03		#952
			-10.00		90.086E-03		#916
			-7.50		89.696E-03		#880
			-5.00		90.050E-03		#844
			-2.50		89.787E-03		#808
			0.00		89.998E-03		#772
			2.50		90.329E-03		#736
			5.00		90.174E-03		#700
			7.50		90.613E-03		#664
			10.00		89.977E-03		#628
			12.50		90.121E-03		#592
			15.00		89.718E-03		#556
			17.50		89.963E-03		#520
			20.00		90.608E-03		#484
			22.50		89.863E-03		#448
			25.00		90.525E-03		#412
			27.50		90.383E-03		#376
			30.00		90.211E-03		#340
			32.50		90.420E-03		#304
		END_DATA
	END_SCAN  12
	BEGIN_SCAN  13
		TASK_NAME=DOSE
		GROUP_NAME=LR_52.0
		PROGRAM=BeamAdjust 2.3.0.25
		COMMENT=G000, E221_c-dhex3.6_4
		MEAS_DATE=08-Jun-2024 21:44:49
		LINAC=HIT
		MODALITY=P
		INPLANE_AXIS_DIR=TARGET_GUN
		CROSSPLANE_AXIS_DIR=LEFT_RIGHT
		DEPTH_AXIS_DIR=UP_DOWN
		ENERGY=0.00
		SSD=0.00
		FIELD_INPLANE=50.00
		FIELD_CROSSPLANE=50.00
		FIELD_TYPE=RECTANGULAR
		GANTRY=0.00
		GANTRY_UPRIGHT_POSITION=0
		GANTRY_ROTATION=CW
		COLL_ANGLE=90.00
		SCAN_DEVICE=OCTAVIUS_1600_XDR
		ELECTROMETER=DETECTOR_INTERFACE
		ELECTROMETER_SN=5987
		DETECTOR=OCTAVIUS_1600_XDR
		DETECTOR_SN=191760
		FILTER=FF
		SCAN_CURVETYPE=CROSSPLANE_PROFILE
		SCAN_DEPTH=0.00
		SCAN_OFFAXIS_INPLANE=-25.00
		SCAN_ANGLE=0.00
		SCAN_DIAGONAL=NOT_DIAGONAL
		MEAS_PRESET=TIME_PRESET
		MEAS_TIME=52.000
		MEAS_UNIT=GY
		PRESSURE=995.30
		TEMPERATURE=19.10
		NORM_TEMPERATURE=20.00
		CORRECTION_FACTOR=1.1270
		CALIBRATION_FILE=C:\Users\Public\Documents\PTW\Common Files\Calibration Files\230554201_OCTAVIUS1600XDR_191760.cal
		CORRECTIONS=AIR_DENSITY_CORR;FACTOR_CORR;
		BEGIN_DATA
			-75.00		626.77E-06		#1511
			-70.00		1.8318E-03		#1480
			-65.00		9.6335E-03		#1449
			-60.00		43.090E-03		#1418
			-55.00		80.381E-03		#1387
			-50.00		90.820E-03		#1356
			-45.00		92.220E-03		#1325
			-40.00		92.204E-03		#1294
			-35.00		91.520E-03		#1263
			-32.50		91.041E-03		#1239
			-30.00		91.095E-03		#1203
			-27.50		90.278E-03		#1167
			-25.00		90.236E-03		#1131
			-22.50		90.275E-03		#1095
			-20.00		90.254E-03		#1059
			-17.50		90.900E-03		#1023
			-15.00		90.043E-03		#987
			-12.50		90.655E-03		#951
			-10.00		89.969E-03		#915
			-7.50		90.317E-03		#879
			-5.00		90.272E-03		#843
			-2.50		90.087E-03		#807
			0.00		89.310E-03		#771
			2.50		90.347E-03		#735
			5.00		90.102E-03		#699
			7.50		90.254E-03		#663
			10.00		89.950E-03		#627
			12.50		90.364E-03		#591
			15.00		90.276E-03		#555
			17.50		90.330E-03		#519
			20.00		91.245E-03		#483
			22.50		90.462E-03		#447
			25.00		90.588E-03		#411
			27.50		90.138E-03		#375
			30.00		91.316E-03		#339
			32.50		90.382E-03		#303
			35.00		91.607E-03		#269
			40.00		91.791E-03		#238
			45.00		92.073E-03		#207
			50.00		90.464E-03		#176
			55.00		79.981E-03		#145
			60.00		42.040E-03		#114
			65.00		9.2965E-03		#83
			70.00		1.8734E-03		#52
			75.00		664.47E-06		#21
		END_DATA
	END_SCAN  13
	BEGIN_SCAN  14
		TASK_NAME=DOSE
		GROUP_NAME=LR_52.0
		PROGRAM=BeamAdjust 2.3.0.25
		COMMENT=G000, E221_c-dhex3.6_4
		MEAS_DATE=08-Jun-2024 21:44:49
		LINAC=HIT
		MODALITY=P
		INPLANE_AXIS_DIR=TARGET_GUN
		CROSSPLANE_AXIS_DIR=LEFT_RIGHT
		DEPTH_AXIS_DIR=UP_DOWN
		ENERGY=0.00
		SSD=0.00
		FIELD_INPLANE=50.00
		FIELD_CROSSPLANE=50.00
		FIELD_TYPE=RECTANGULAR
		GANTRY=0.00
		GANTRY_UPRIGHT_POSITION=0
		GANTRY_ROTATION=CW
		COLL_ANGLE=90.00
		SCAN_DEVICE=OCTAVIUS_1600_XDR
		ELECTROMETER=DETECTOR_INTERFACE
		ELECTROMETER_SN=5987
		DETECTOR=OCTAVIUS_1600_XDR
		DETECTOR_SN=191760
		FILTER=FF
		SCAN_CURVETYPE=CROSSPLANE_PROFILE
		SCAN_DEPTH=0.00
		SCAN_OFFAXIS_INPLANE=-22.50
		SCAN_ANGLE=0.00
		SCAN_DIAGONAL=NOT_DIAGONAL
		MEAS_PRESET=TIME_PRESET
		MEAS_TIME=52.000
		MEAS_UNIT=GY
		PRESSURE=995.30
		TEMPERATURE=19.10
		NORM_TEMPERATURE=20.00
		CORRECTION_FACTOR=1.1270
		CALIBRATION_FILE=C:\Users\Public\Documents\PTW\Common Files\Calibration Files\230554201_OCTAVIUS1600XDR_191760.cal
		CORRECTIONS=AIR_DENSITY_CORR;FACTOR_CORR;
		BEGIN_DATA
			-32.50		90.966E-03		#1238
			-30.00		91.198E-03		#1202
			-27.50		90.537E-03		#1166
			-25.00		90.658E-03		#1130
			-22.50		90.592E-03		#1094
			-20.00		91.086E-03		#1058
			-17.50		90.743E-03		#1022
			-15.00		90.443E-03		#986
			-12.50		90.295E-03		#950
			-10.00		91.244E-03		#914
			-7.50		90.631E-03		#878
			-5.00		90.456E-03		#842
			-2.50		90.326E-03		#806
			0.00		90.102E-03		#770
			2.50		90.391E-03		#734
			5.00		90.432E-03		#698
			7.50		90.729E-03		#662
			10.00		89.997E-03		#626
			12.50		90.439E-03		#590
			15.00		90.614E-03		#554
			17.50		90.195E-03		#518
			20.00		90.456E-03		#482
			22.50		90.730E-03		#446
			25.00		90.820E-03		#410
			27.50		91.284E-03		#374
			30.00		91.306E-03		#338
			32.50		91.017E-03		#302
		END_DATA
	END_SCAN  14
	BEGIN_SCAN  15
		TASK_NAME=DOSE
		GROUP_NAME=LR_52.0
		PROGRAM=BeamAdjust 2.3.0.25
		COMMENT=G000, E221_c-dhex3.6_4
		MEAS_DATE=08-Jun-2024 21:44:49
		LINAC=HIT
		MODALITY=P
		INPLANE_AXIS_DIR=TARGET_GUN
		CROSSPLANE_AXIS_DIR=LEFT_RIGHT
		DEPTH_AXIS_DIR=UP_DOWN
		ENERGY=0.00
		SSD=0.00
		FIELD_INPLANE=50.00
		FIELD_CROSSPLANE=50.00
		FIELD_TYPE=RECTANGULAR
		GANTRY=0.00
		GANTRY_UPRIGHT_POSITION=0
		GANTRY_ROTATION=CW
		COLL_ANGLE=90.00
		SCAN_DEVICE=OCTAVIUS_1600_XDR
		ELECTROMETER=DETECTOR_INTERFACE
		ELECTROMETER_SN=5987
		DETECTOR=OCTAVIUS_1600_XDR
		DETECTOR_SN=191760
		FILTER=FF
		SCAN_CURVETYPE=CROSSPLANE_PROFILE
		SCAN_DEPTH=0.00
		SCAN_OFFAXIS_INPLANE=-20.00
		SCAN_ANGLE=0.00
		SCAN_DIAGONAL=NOT_DIAGONAL
		MEAS_PRESET=TIME_PRESET
		MEAS_TIME=52.000
		MEAS_UNIT=GY
		PRESSURE=995.30
		TEMPERATURE=19.10
		NORM_TEMPERATURE=20.00
		CORRECTION_FACTOR=1.1270
		CALIBRATION_FILE=C:\Users\Public\Documents\PTW\Common Files\Calibration Files\230554201_OCTAVIUS1600XDR_191760.cal
		CORRECTIONS=AIR_DENSITY_CORR;FACTOR_CORR;
		BEGIN_DATA
			-75.00		1.0757E-03		#1510
			-70.00		2.1171E-03		#1479
			-65.00		9.6120E-03		#1448
			-60.00		42.650E-03		#1417
			-55.00		80.600E-03		#1386
			-50.00		91.103E-03		#1355
			-45.00		92.022E-03		#1324
			-40.00		92.285E-03		#1293
			-35.00		91.643E-03		#1262
			-32.50		90.858E-03		#1237
			-30.00		91.063E-03		#1201
			-27.50		90.032E-03		#1165
			-25.00		91.074E-03		#1129
			-22.50		90.956E-03		#1093
			-20.00		90.523E-03		#1057
			-17.50		90.982E-03		#1021
			-15.00		91.410E-03		#985
			-12.50		91.447E-03		#949
			-10.00		90.550E-03		#913
			-7.50		91.261E-03		#877
			-5.00		90.675E-03		#841
			-2.50		90.935E-03		#805
			0.00		90.410E-03		#769
			2.50		90.421E-03		#733
			5.00		90.353E-03		#697
			7.50		90.439E-03		#661
			10.00		90.451E-03		#625
			12.50		90.576E-03		#589
			15.00		90.179E-03		#553
			17.50		90.354E-03		#517
			20.00		90.651E-03		#481
			22.50		90.690E-03		#445
			25.00		90.899E-03		#409
			27.50		91.060E-03		#373
			30.00		91.259E-03		#337
			32.50		92.113E-03		#301
			35.00		92.338E-03		#268
			40.00		93.018E-03		#237
			45.00		92.673E-03		#206
			50.00		91.312E-03		#175
			55.00		80.422E-03		#144
			60.00		43.219E-03		#113
			65.00		9.4258E-03		#82
			70.00		1.7966E-03		#51
			75.00		731.38E-06		#20
		END_DATA
	END_SCAN  15
	BEGIN_SCAN  16
		TASK_NAME=DOSE
		GROUP_NAME=LR_52.0
		PROGRAM=BeamAdjust 2.3.0.25
