BEGIN_SCAN_DATA
	FORMAT=CC-Export V1.9                  
	FILE_CREATION_DATE=08-Jun-2024 21:43:39
	LAST_MODIFIED=08-Jun-2024 21:43:39
	BEGIN_SCAN  1
		TASK_NAME=DOSE
		GROUP_NAME=LR_36.8
		PROGRAM=BeamAdjust 2.3.0.25
		COMMENT=G000, E221_c-dhex3.6_4
		MEAS_DATE=08-Jun-2024 21:43:21
		LINAC=HIT
		MODALITY=P
		INPLANE_AXIS_DIR=TARGET_GUN
		CROSSPLANE_AXIS_DIR=LEFT_RIGHT
		DEPTH_AXIS_DIR=UP_DOWN
		ENERGY=0.00
		SSD=0.00
		FIELD_INPLANE=50.00
		FIELD_CROSSPLANE=50.00
		FIELD_TYPE=RECTANGULAR
		GANTRY=0.00
		GANTRY_UPRIGHT_POSITION=0
		GANTRY_ROTATION=CW
		COLL_ANGLE=90.00
		SCAN_DEVICE=OCTAVIUS_1600_XDR
		ELECTROMETER=DETECTOR_INTERFACE
		ELECTROMETER_SN=5987
		DETECTOR=OCTAVIUS_1600_XDR
		DETECTOR_SN=191760
		FILTER=FF
		SCAN_CURVETYPE=CROSSPLANE_PROFILE
		SCAN_DEPTH=0.00
		SCAN_OFFAXIS_INPLANE=-75.00
		SCAN_ANGLE=0.00
		SCAN_DIAGONAL=NOT_DIAGONAL
		MEAS_PRESET=TIME_PRESET
		MEAS_TIME=36.800
		MEAS_UNIT=GY
		PRESSURE=995.30
		TEMPERATURE=19.10
		NORM_TEMPERATURE=20.00
		CORRECTION_FACTOR=1.1270
		CALIBRATION_FILE=C:\Users\Public\Documents\PTW\Common Files\Calibration Files\230554201_OCTAVIUS1600XDR_191760.cal
		CORRECTIONS=AIR_DENSITY_CORR;FACTOR_CORR;
		BEGIN_DATA
			-75.00		519.31E-06		#1521
			-70.00		388.60E-06		#1490
			-65.00		778.44E-06		#1459
			-60.00		1.0044E-03		#1428
			-55.00		1.4039E-03		#1397
			-50.00		1.6645E-03		#1366
			-45.00		1.9577E-03		#1335
			-40.00		2.0962E-03		#1304
			-35.00		2.1515E-03		#1273
			-30.00		2.3569E-03		#1215
			-25.00		2.3882E-03		#1143
			-20.00		2.1602E-03		#1071
			-15.00		2.3751E-03		#999
			-10.00		2.1727E-03		#927
			-5.00		2.1744E-03		#855
			0.00		2.1442E-03		#783
			5.00		2.1933E-03		#711
			10.00		2.1599E-03		#639
			15.00		2.5114E-03		#567
			20.00		2.0217E-03		#495
			25.00		2.4020E-03		#423
			30.00		1.6846E-03		#351
			35.00		2.4740E-03		#279
			40.00		2.5101E-03		#248
			45.00		1.9753E-03		#217
			50.00		1.7257E-03		#186
			55.00		1.6939E-03		#155
			60.00		1.0502E-03		#124
			65.00		845.60E-06		#93
			70.00		809.62E-06		#62
			75.00		169.62E-06		#31
		END_DATA
	END_SCAN  1
	BEGIN_SCAN  2
		TASK_NAME=DOSE
		GROUP_NAME=LR_36.8
		PROGRAM=BeamAdjust 2.3.0.25
		COMMENT=G000, E221_c-dhex3.6_4
		MEAS_DATE=08-Jun-2024 21:43:21
		LINAC=HIT
		MODALITY=P
		INPLANE_AXIS_DIR=TARGET_GUN
		CROSSPLANE_AXIS_DIR=LEFT_RIGHT
		DEPTH_AXIS_DIR=UP_DOWN
		ENERGY=0.00
		SSD=0.00
		FIELD_INPLANE=50.00
		FIELD_CROSSPLANE=50.00
		FIELD_TYPE=RECTANGULAR
		GANTRY=0.00
		GANTRY_UPRIGHT_POSITION=0
		GANTRY_ROTATION=CW
		COLL_ANGLE=90.00
		SCAN_DEVICE=OCTAVIUS_1600_XDR
		ELECTROMETER=DETECTOR_INTERFACE
		ELECTROMETER_SN=5987
		DETECTOR=OCTAVIUS_1600_XDR
		DETECTOR_SN=191760
		FILTER=FF
		SCAN_CURVETYPE=CROSSPLANE_PROFILE
		SCAN_DEPTH=0.00
		SCAN_OFFAXIS_INPLANE=-70.00
		SCAN_ANGLE=0.00
		SCAN_DIAGONAL=NOT_DIAGONAL
		MEAS_PRESET=TIME_PRESET
		MEAS_TIME=36.800
		MEAS_UNIT=GY
		PRESSURE=995.30
		TEMPERATURE=19.10
		NORM_TEMPERATURE=20.00
		CORRECTION_FACTOR=1.1270
		CALIBRATION_FILE=C:\Users\Public\Documents\PTW\Common Files\Calibration Files\230554201_OCTAVIUS1600XDR_191760.cal
		CORRECTIONS=AIR_DENSITY_CORR;FACTOR_CORR;
		BEGIN_DATA
			-75.00		583.49E-06		#1520
			-70.00		1.0742E-03		#1489
			-65.00		1.5901E-03		#1458
			-60.00		2.7250E-03		#1427
			-55.00		3.9731E-03		#1396
			-50.00		4.8275E-03		#1365
			-45.00		5.8777E-03		#1334
			-40.00		5.7487E-03		#1303
			-35.00		6.1694E-03		#1272
			-30.00		6.0647E-03		#1214
			-25.00		5.9806E-03		#1142
			-20.00		5.9633E-03		#1070
			-15.00		5.8664E-03		#998
			-10.00		6.0436E-03		#926
			-5.00		6.4656E-03		#854
			0.00		6.1480E-03		#782
			5.00		6.0966E-03		#710
			10.00		6.0889E-03		#638
			15.00		6.0779E-03		#566
			20.00		6.0052E-03		#494
			25.00		6.3658E-03		#422
			30.00		6.0950E-03		#350
			35.00		6.3355E-03		#278
			40.00		5.9016E-03		#247
			45.00		5.7979E-03		#216
			50.00		5.3714E-03		#185
			55.00		4.1976E-03		#154
			60.00		3.1752E-03		#123
			65.00		1.6698E-03		#92
			70.00		1.0272E-03		#61
			75.00		613.16E-06		#30
		END_DATA
	END_SCAN  2
	BEGIN_SCAN  3
		TASK_NAME=DOSE
		GROUP_NAME=LR_36.8
		PROGRAM=BeamAdjust 2.3.0.25
		COMMENT=G000, E221_c-dhex3.6_4
		MEAS_DATE=08-Jun-2024 21:43:21
		LINAC=HIT
		MODALITY=P
		INPLANE_AXIS_DIR=TARGET_GUN
		CROSSPLANE_AXIS_DIR=LEFT_RIGHT
		DEPTH_AXIS_DIR=UP_DOWN
		ENERGY=0.00
		SSD=0.00
		FIELD_INPLANE=50.00
		FIELD_CROSSPLANE=50.00
		FIELD_TYPE=RECTANGULAR
		GANTRY=0.00
		GANTRY_UPRIGHT_POSITION=0
		GANTRY_ROTATION=CW
		COLL_ANGLE=90.00
		SCAN_DEVICE=OCTAVIUS_1600_XDR
		ELECTROMETER=DETECTOR_INTERFACE
		ELECTROMETER_SN=5987
		DETECTOR=OCTAVIUS_1600_XDR
		DETECTOR_SN=191760
		FILTER=FF
		SCAN_CURVETYPE=CROSSPLANE_PROFILE
		SCAN_DEPTH=0.00
		SCAN_OFFAXIS_INPLANE=-65.00
		SCAN_ANGLE=0.00
		SCAN_DIAGONAL=NOT_DIAGONAL
		MEAS_PRESET=TIME_PRESET
		MEAS_TIME=36.800
		MEAS_UNIT=GY
		PRESSURE=995.30
		TEMPERATURE=19.10
		NORM_TEMPERATURE=20.00
		CORRECTION_FACTOR=1.1270
		CALIBRATION_FILE=C:\Users\Public\Documents\PTW\Common Files\Calibration Files\230554201_OCTAVIUS1600XDR_191760.cal
		CORRECTIONS=AIR_DENSITY_CORR;FACTOR_CORR;
		BEGIN_DATA
			-75.00		734.59E-06		#1519
			-70.00		1.5507E-03		#1488
			-65.00		3.9450E-03		#1457
			-60.00		7.9055E-03		#1426
			-55.00		13.111E-03		#1395
			-50.00		16.686E-03		#1364
			-45.00		18.139E-03		#1333
			-40.00		18.706E-03		#1302
			-35.00		18.997E-03		#1271
			-30.00		18.734E-03		#1213
			-25.00		18.702E-03		#1141
			-20.00		18.948E-03		#1069
			-15.00		19.238E-03		#997
			-10.00		19.233E-03		#925
			-5.00		19.084E-03		#853
			0.00		19.144E-03		#781
			5.00		19.156E-03		#709
			10.00		19.257E-03		#637
			15.00		19.083E-03		#565
			20.00		19.070E-03		#493
			25.00		19.697E-03		#421
			30.00		19.410E-03		#349
			35.00		19.692E-03		#277
			40.00		19.295E-03		#246
			45.00		19.461E-03		#215
			50.00		17.584E-03		#184
			55.00		13.896E-03		#153
			60.00		8.3360E-03		#122
			65.00		3.9896E-03		#91
			70.00		1.6924E-03		#60
			75.00		749.26E-06		#29
		END_DATA
	END_SCAN  3
	BEGIN_SCAN  4
		TASK_NAME=DOSE
		GROUP_NAME=LR_36.8
		PROGRAM=BeamAdjust 2.3.0.25
		COMMENT=G000, E221_c-dhex3.6_4
		MEAS_DATE=08-Jun-2024 21:43:21
		LINAC=HIT
		MODALITY=P
		INPLANE_AXIS_DIR=TARGET_GUN
		CROSSPLANE_AXIS_DIR=LEFT_RIGHT
		DEPTH_AXIS_DIR=UP_DOWN
		ENERGY=0.00
		SSD=0.00
		FIELD_INPLANE=50.00
		FIELD_CROSSPLANE=50.00
		FIELD_TYPE=RECTANGULAR
		GANTRY=0.00
		GANTRY_UPRIGHT_POSITION=0
		GANTRY_ROTATION=CW
		COLL_ANGLE=90.00
		SCAN_DEVICE=OCTAVIUS_1600_XDR
		ELECTROMETER=DETECTOR_INTERFACE
		ELECTROMETER_SN=5987
		DETECTOR=OCTAVIUS_1600_XDR
		DETECTOR_SN=191760
		FILTER=FF
		SCAN_CURVETYPE=CROSSPLANE_PROFILE
		SCAN_DEPTH=0.00
		SCAN_OFFAXIS_INPLANE=-60.00
		SCAN_ANGLE=0.00
		SCAN_DIAGONAL=NOT_DIAGONAL
		MEAS_PRESET=TIME_PRESET
		MEAS_TIME=36.800
		MEAS_UNIT=GY
		PRESSURE=995.30
		TEMPERATURE=19.10
		NORM_TEMPERATURE=20.00
		CORRECTION_FACTOR=1.1270
		CALIBRATION_FILE=C:\Users\Public\Documents\PTW\Common Files\Calibration Files\230554201_OCTAVIUS1600XDR_191760.cal
		CORRECTIONS=AIR_DENSITY_CORR;FACTOR_CORR;
		BEGIN_DATA
			-75.00		1.3982E-03		#1518
			-70.00		3.0833E-03		#1487
			-65.00		9.1055E-03		#1456
			-60.00		21.137E-03		#1425
			-55.00		36.856E-03		#1394
			-50.00		46.361E-03		#1363
			-45.00		49.618E-03		#1332
			-40.00		51.231E-03		#1301
			-35.00		50.994E-03		#1270
			-30.00		51.148E-03		#1212
			-25.00		51.161E-03		#1140
			-20.00		51.254E-03		#1068
			-15.00		51.291E-03		#996
			-10.00		51.804E-03		#924
			-5.00		51.638E-03		#852
			0.00		51.435E-03		#780
			5.00		51.632E-03		#708
			10.00		51.936E-03		#636
			15.00		51.774E-03		#564
			20.00		52.177E-03		#492
			25.00		52.124E-03		#420
			30.00		52.704E-03		#348
			35.00		52.210E-03		#276
			40.00		52.459E-03		#245
			45.00		51.157E-03		#214
			50.00		48.407E-03		#183
			55.00		38.714E-03		#152
			60.00		22.743E-03		#121
			65.00		9.6160E-03		#90
			70.00		3.2590E-03		#59
			75.00		1.6337E-03		#28
		END_DATA
	END_SCAN  4
	BEGIN_SCAN  5
		TASK_NAME=DOSE
		GROUP_NAME=LR_36.8
		PROGRAM=BeamAdjust 2.3.0.25
		COMMENT=G000, E221_c-dhex3.6_4
		MEAS_DATE=08-Jun-2024 21:43:21
		LINAC=HIT
		MODALITY=P
		INPLANE_AXIS_DIR=TARGET_GUN
		CROSSPLANE_AXIS_DIR=LEFT_RIGHT
		DEPTH_AXIS_DIR=UP_DOWN
		ENERGY=0.00
		SSD=0.00
		FIELD_INPLANE=50.00
		FIELD_CROSSPLANE=50.00
		FIELD_TYPE=RECTANGULAR
		GANTRY=0.00
		GANTRY_UPRIGHT_POSITION=0
		GANTRY_ROTATION=CW
		COLL_ANGLE=90.00
		SCAN_DEVICE=OCTAVIUS_1600_XDR
		ELECTROMETER=DETECTOR_INTERFACE
		ELECTROMETER_SN=5987
		DETECTOR=OCTAVIUS_1600_XDR
		DETECTOR_SN=191760
		FILTER=FF
		SCAN_CURVETYPE=CROSSPLANE_PROFILE
		SCAN_DEPTH=0.00
		SCAN_OFFAXIS_INPLANE=-55.00
		SCAN_ANGLE=0.00
		SCAN_DIAGONAL=NOT_DIAGONAL
		MEAS_PRESET=TIME_PRESET
		MEAS_TIME=36.800
		MEAS_UNIT=GY
		PRESSURE=995.30
		TEMPERATURE=19.10
		NORM_TEMPERATURE=20.00
		CORRECTION_FACTOR=1.1270
		CALIBRATION_FILE=C:\Users\Public\Documents\PTW\Common Files\Calibration Files\230554201_OCTAVIUS1600XDR_191760.cal
		CORRECTIONS=AIR_DENSITY_CORR;FACTOR_CORR;
		BEGIN_DATA
			-75.00		1.6760E-03		#1517
			-70.00		5.2520E-03		#1486
			-65.00		16.033E-03		#1455
			-60.00		40.351E-03		#1424
			-55.00		68.806E-03		#1393
			-50.00		86.131E-03		#1362
			-45.00		91.911E-03		#1331
			-40.00		93.181E-03		#1300
			-35.00		93.602E-03		#1269
			-30.00		93.446E-03		#1211
			-25.00		93.095E-03		#1139
			-20.00		92.910E-03		#1067
			-15.00		93.460E-03		#995
			-10.00		93.622E-03		#923
			-5.00		93.222E-03		#851
			0.00		93.352E-03		#779
			5.00		93.232E-03		#707
			10.00		93.525E-03		#635
			15.00		93.327E-03		#563
			20.00		94.184E-03		#491
			25.00		94.135E-03		#419
			30.00		94.484E-03		#347
			35.00		95.175E-03		#275
			40.00		94.056E-03		#244
			45.00		93.571E-03		#213
			50.00		87.321E-03		#182
			55.00		70.171E-03		#151
			60.00		40.981E-03		#120
			65.00		16.278E-03		#89
			70.00		5.0916E-03		#58
			75.00		1.4808E-03		#27
		END_DATA
	END_SCAN  5
	BEGIN_SCAN  6
		TASK_NAME=DOSE
		GROUP_NAME=LR_36.8
		PROGRAM=BeamAdjust 2.3.0.25
		COMMENT=G000, E221_c-dhex3.6_4
		MEAS_DATE=08-Jun-2024 21:43:21
		LINAC=HIT
		MODALITY=P
		INPLANE_AXIS_DIR=TARGET_GUN
		CROSSPLANE_AXIS_DIR=LEFT_RIGHT
		DEPTH_AXIS_DIR=UP_DOWN
		ENERGY=0.00
		SSD=0.00
		FIELD_INPLANE=50.00
		FIELD_CROSSPLANE=50.00
		FIELD_TYPE=RECTANGULAR
		GANTRY=0.00
		GANTRY_UPRIGHT_POSITION=0
		GANTRY_ROTATION=CW
		COLL_ANGLE=90.00
		SCAN_DEVICE=OCTAVIUS_1600_XDR
		ELECTROMETER=DETECTOR_INTERFACE
		ELECTROMETER_SN=5987
		DETECTOR=OCTAVIUS_1600_XDR
		DETECTOR_SN=191760
		FILTER=FF
		SCAN_CURVETYPE=CROSSPLANE_PROFILE
		SCAN_DEPTH=0.00
		SCAN_OFFAXIS_INPLANE=-50.00
		SCAN_ANGLE=0.00
		SCAN_DIAGONAL=NOT_DIAGONAL
		MEAS_PRESET=TIME_PRESET
		MEAS_TIME=36.800
		MEAS_UNIT=GY
		PRESSURE=995.30
		TEMPERATURE=19.10
		NORM_TEMPERATURE=20.00
		CORRECTION_FACTOR=1.1270
		CALIBRATION_FILE=C:\Users\Public\Documents\PTW\Common Files\Calibration Files\230554201_OCTAVIUS1600XDR_191760.cal
		CORRECTIONS=AIR_DENSITY_CORR;FACTOR_CORR;
		BEGIN_DATA
			-75.00		2.2965E-03		#1516
			-70.00		6.5982E-03		#1485
			-65.00		21.010E-03		#1454
			-60.00		52.740E-03		#1423
			-55.00		89.075E-03		#1392
			-50.00		110.56E-03		#1361
			-45.00		117.60E-03		#1330
			-40.00		119.88E-03		#1299
			-35.00		119.50E-03		#1268
			-30.00		119.52E-03		#1210
			-25.00		118.64E-03		#1138
			-20.00		119.02E-03		#1066
			-15.00		118.46E-03		#994
			-10.00		118.56E-03		#922
			-5.00		119.16E-03		#850
			0.00		118.90E-03		#778
			5.00		118.74E-03		#706
			10.00		118.80E-03		#634
			15.00		119.34E-03		#562
			20.00		120.02E-03		#490
			25.00		120.06E-03		#418
			30.00		119.88E-03		#346
			35.00		120.59E-03		#274
			40.00		120.26E-03		#243
			45.00		118.38E-03		#212
			50.00		111.05E-03		#181
			55.00		89.962E-03		#150
			60.00		53.011E-03		#119
			65.00		21.512E-03		#88
			70.00		6.9742E-03		#57
			75.00		1.9325E-03		#26
		END_DATA
	END_SCAN  6
	BEGIN_SCAN  7
		TASK_NAME=DOSE
		GROUP_NAME=LR_36.8
		PROGRAM=BeamAdjust 2.3.0.25
		COMMENT=G000, E221_c-dhex3.6_4
		MEAS_DATE=08-Jun-2024 21:43:21
		LINAC=HIT
		MODALITY=P
		INPLANE_AXIS_DIR=TARGET_GUN
		CROSSPLANE_AXIS_DIR=LEFT_RIGHT
		DEPTH_AXIS_DIR=UP_DOWN
		ENERGY=0.00
		SSD=0.00
		FIELD_INPLANE=50.00
		FIELD_CROSSPLANE=50.00
		FIELD_TYPE=RECTANGULAR
		GANTRY=0.00
		GANTRY_UPRIGHT_POSITION=0
		GANTRY_ROTATION=CW
		COLL_ANGLE=90.00
		SCAN_DEVICE=OCTAVIUS_1600_XDR
		ELECTROMETER=DETECTOR_INTERFACE
		ELECTROMETER_SN=5987
		DETECTOR=OCTAVIUS_1600_XDR
		DETECTOR_SN=191760
		FILTER=FF
		SCAN_CURVETYPE=CROSSPLANE_PROFILE
		SCAN_DEPTH=0.00
		SCAN_OFFAXIS_INPLANE=-45.00
		SCAN_ANGLE=0.00
		SCAN_DIAGONAL=NOT_DIAGONAL
		MEAS_PRESET=TIME_PRESET
		MEAS_TIME=36.800
		MEAS_UNIT=GY
		PRESSURE=995.30
		TEMPERATURE=19.10
		NORM_TEMPERATURE=20.00
		CORRECTION_FACTOR=1.1270
		CALIBRATION_FILE=C:\Users\Public\Documents\PTW\Common Files\Calibration Files\230554201_OCTAVIUS1600XDR_191760.cal
		CORRECTIONS=AIR_DENSITY_CORR;FACTOR_CORR;
		BEGIN_DATA
			-75.00		2.5986E-03		#1515
			-70.00		7.2909E-03		#1484
			-65.00		23.146E-03		#1453
			-60.00		56.696E-03		#1422
			-55.00		95.515E-03		#1391
			-50.00		118.72E-03		#1360
			-45.00		126.56E-03		#1329
			-40.00		128.12E-03		#1298
			-35.00		128.20E-03		#1267
			-30.00		127.58E-03		#1209
			-25.00		128.14E-03		#1137
			-20.00		126.60E-03		#1065
			-15.00		127.31E-03		#993
			-10.00		126.61E-03		#921
			-5.00		126.96E-03		#849
			0.00		126.96E-03		#777
			5.00		127.30E-03		#705
			10.00		127.07E-03		#633
			15.00		127.08E-03		#561
			20.00		127.80E-03		#489
			25.00		128.25E-03		#417
			30.00		128.54E-03		#345
			35.00		128.27E-03		#273
			40.00		128.54E-03		#242
			45.00		127.06E-03		#211
			50.00		119.67E-03		#180
			55.00		95.868E-03		#149
			60.00		57.388E-03		#118
			65.00		23.359E-03		#87
			70.00		7.6678E-03		#56
			75.00		2.2856E-03		#25
		END_DATA
	END_SCAN  7
	BEGIN_SCAN  8
		TASK_NAME=DOSE
		GROUP_NAME=LR_36.8
		PROGRAM=BeamAdjust 2.3.0.25
		COMMENT=G000, E221_c-dhex3.6_4
		MEAS_DATE=08-Jun-2024 21:43:21
		LINAC=HIT
		MODALITY=P
		INPLANE_AXIS_DIR=TARGET_GUN
		CROSSPLANE_AXIS_DIR=LEFT_RIGHT
		DEPTH_AXIS_DIR=UP_DOWN
		ENERGY=0.00
		SSD=0.00
		FIELD_INPLANE=50.00
		FIELD_CROSSPLANE=50.00
		FIELD_TYPE=RECTANGULAR
		GANTRY=0.00
		GANTRY_UPRIGHT_POSITION=0
		GANTRY_ROTATION=CW
		COLL_ANGLE=90.00
		SCAN_DEVICE=OCTAVIUS_1600_XDR
		ELECTROMETER=DETECTOR_INTERFACE
		ELECTROMETER_SN=5987
		DETECTOR=OCTAVIUS_1600_XDR
		DETECTOR_SN=191760
		FILTER=FF
		SCAN_CURVETYPE=CROSSPLANE_PROFILE
		SCAN_DEPTH=0.00
		SCAN_OFFAXIS_INPLANE=-40.00
		SCAN_ANGLE=0.00
		SCAN_DIAGONAL=NOT_DIAGONAL
		MEAS_PRESET=TIME_PRESET
		MEAS_TIME=36.800
		MEAS_UNIT=GY
		PRESSURE=995.30
		TEMPERATURE=19.10
		NORM_TEMPERATURE=20.00
		CORRECTION_FACTOR=1.1270
		CALIBRATION_FILE=C:\Users\Public\Documents\PTW\Common Files\Calibration Files\230554201_OCTAVIUS1600XDR_191760.cal
		CORRECTIONS=AIR_DENSITY_CORR;FACTOR_CORR;
		BEGIN_DATA
			-75.00		2.6031E-03		#1514
			-70.00		7.8704E-03		#1483
			-65.00		23.665E-03		#1452
			-60.00		57.494E-03		#1421
			-55.00		97.059E-03		#1390
			-50.00		120.47E-03		#1359
			-45.00		128.50E-03		#1328
			-40.00		130.03E-03		#1297
			-35.00		130.74E-03		#1266
			-30.00		129.93E-03		#1208
			-25.00		129.79E-03		#1136
			-20.00		129.02E-03		#1064
			-15.00		128.60E-03		#992
			-10.00		129.03E-03		#920
			-5.00		129.11E-03		#848
			0.00		129.13E-03		#776
			5.00		128.96E-03		#704
			10.00		129.24E-03		#632
			15.00		128.99E-03		#560
			20.00		129.62E-03		#488
			25.00		130.12E-03		#416
			30.00		130.12E-03		#344
			35.00		130.55E-03		#272
			40.00		129.79E-03		#241
			45.00		128.67E-03		#210
			50.00		120.46E-03		#179
			55.00		97.598E-03		#148
			60.00		58.339E-03		#117
			65.00		23.982E-03		#86
			70.00		7.7623E-03		#55
			75.00		2.9625E-03		#24
		END_DATA
	END_SCAN  8
	BEGIN_SCAN  9
		TASK_NAME=DOSE
		GROUP_NAME=LR_36.8
		PROGRAM=BeamAdjust 2.3.0.25
		COMMENT=G000, E221_c-dhex3.6_4
		MEAS_DATE=08-Jun-2024 21:43:21
		LINAC=HIT
		MODALITY=P
		INPLANE_AXIS_DIR=TARGET_GUN
		CROSSPLANE_AXIS_DIR=LEFT_RIGHT
		DEPTH_AXIS_DIR=UP_DOWN
		ENERGY=0.00
		SSD=0.00
		FIELD_INPLANE=50.00
		FIELD_CROSSPLANE=50.00
		FIELD_TYPE=RECTANGULAR
		GANTRY=0.00
		GANTRY_UPRIGHT_POSITION=0
		GANTRY_ROTATION=CW
		COLL_ANGLE=90.00
		SCAN_DEVICE=OCTAVIUS_1600_XDR
		ELECTROMETER=DETECTOR_INTERFACE
		ELECTROMETER_SN=5987
		DETECTOR=OCTAVIUS_1600_XDR
		DETECTOR_SN=191760
		FILTER=FF
		SCAN_CURVETYPE=CROSSPLANE_PROFILE
		SCAN_DEPTH=0.00
		SCAN_OFFAXIS_INPLANE=-35.00
		SCAN_ANGLE=0.00
		SCAN_DIAGONAL=NOT_DIAGONAL
		MEAS_PRESET=TIME_PRESET
		MEAS_TIME=36.800
		MEAS_UNIT=GY
		PRESSURE=995.30
		TEMPERATURE=19.10
		NORM_TEMPERATURE=20.00
		CORRECTION_FACTOR=1.1270
		CALIBRATION_FILE=C:\Users\Public\Documents\PTW\Common Files\Calibration Files\230554201_OCTAVIUS1600XDR_191760.cal
		CORRECTIONS=AIR_DENSITY_CORR;FACTOR_CORR;
		BEGIN_DATA
			-75.00		2.9252E-03		#1513
			-70.00		7.5833E-03		#1482
			-65.00		23.947E-03		#1451
			-60.00		58.103E-03		#1420
			-55.00		97.170E-03		#1389
			-50.00		121.17E-03		#1358
			-45.00		129.17E-03		#1327
			-40.00		131.12E-03		#1296
			-35.00		130.66E-03		#1265
			-30.00		129.92E-03		#1207
			-25.00		129.35E-03		#1135
			-20.00		129.40E-03		#1063
			-15.00		129.38E-03		#991
			-10.00		129.68E-03		#919
			-5.00		129.83E-03		#847
			0.00		129.18E-03		#775
			5.00		128.76E-03		#703
			10.00		129.61E-03		#631
			15.00		128.92E-03		#559
			20.00		130.39E-03		#487
			25.00		130.61E-03		#415
			30.00		130.88E-03		#343
			35.00		131.18E-03		#271
			40.00		130.74E-03		#240
			45.00		129.08E-03		#209
			50.00		120.95E-03		#178
			55.00		97.733E-03		#147
			60.00		58.846E-03		#116
			65.00		24.059E-03		#85
			70.00		7.9013E-03		#54
			75.00		2.4706E-03		#23
		END_DATA
	END_SCAN  9
	BEGIN_SCAN  10
		TASK_NAME=DOSE
		GROUP_NAME=LR_36.8
		PROGRAM=BeamAdjust 2.3.0.25
		COMMENT=G000, E221_c-dhex3.6_4
		MEAS_DATE=08-Jun-2024 21:43:21
		LINAC=HIT
		MODALITY=P
		INPLANE_AXIS_DIR=TARGET_GUN
		CROSSPLANE_AXIS_DIR=LEFT_RIGHT
		DEPTH_AXIS_DIR=UP_DOWN
		ENERGY=0.00
		SSD=0.00
		FIELD_INPLANE=50.00
		FIELD_CROSSPLANE=50.00
		FIELD_TYPE=RECTANGULAR
		GANTRY=0.00
		GANTRY_UPRIGHT_POSITION=0
		GANTRY_ROTATION=CW
		COLL_ANGLE=90.00
		SCAN_DEVICE=OCTAVIUS_1600_XDR
		ELECTROMETER=DETECTOR_INTERFACE
		ELECTROMETER_SN=5987
		DETECTOR=OCTAVIUS_1600_XDR
		DETECTOR_SN=191760
		FILTER=FF
		SCAN_CURVETYPE=CROSSPLANE_PROFILE
		SCAN_DEPTH=0.00
		SCAN_OFFAXIS_INPLANE=-32.50
		SCAN_ANGLE=0.00
		SCAN_DIAGONAL=NOT_DIAGONAL
		MEAS_PRESET=TIME_PRESET
		MEAS_TIME=36.800
		MEAS_UNIT=GY
		PRESSURE=995.30
		TEMPERATURE=19.10
		NORM_TEMPERATURE=20.00
		CORRECTION_FACTOR=1.1270
		CALIBRATION_FILE=C:\Users\Public\Documents\PTW\Common Files\Calibration Files\230554201_OCTAVIUS1600XDR_191760.cal
		CORRECTIONS=AIR_DENSITY_CORR;FACTOR_CORR;
		BEGIN_DATA
			-32.50		129.94E-03		#1242
			-30.00		130.02E-03		#1206
			-27.50		130.42E-03		#1170
			-25.00		129.73E-03		#1134
			-22.50		128.79E-03		#1098
			-20.00		129.26E-03		#1062
			-17.50		129.24E-03		#1026
			-15.00		129.21E-03		#990
			-12.50		129.57E-03		#954
			-10.00		129.56E-03		#918
			-7.50		129.25E-03		#882
			-5.00		129.07E-03		#846
			-2.50		129.25E-03		#810
			0.00		129.52E-03		#774
			2.50		128.02E-03		#738
			5.00		129.17E-03		#702
			7.50		128.58E-03		#666
			10.00		129.80E-03		#630
			12.50		129.97E-03		#594
			15.00		128.92E-03		#558
			17.50		130.40E-03		#522
			20.00		129.74E-03		#486
			22.50		130.97E-03		#450
			25.00		129.75E-03		#414
			27.50		130.74E-03		#378
			30.00		131.15E-03		#342
			32.50		130.33E-03		#306
		END_DATA
	END_SCAN  10
	BEGIN_SCAN  11
		TASK_NAME=DOSE
		GROUP_NAME=LR_36.8
		PROGRAM=BeamAdjust 2.3.0.25
		COMMENT=G000, E221_c-dhex3.6_4
		MEAS_DATE=08-Jun-2024 21:43:21
		LINAC=HIT
		MODALITY=P
		INPLANE_AXIS_DIR=TARGET_GUN
		CROSSPLANE_AXIS_DIR=LEFT_RIGHT
		DEPTH_AXIS_DIR=UP_DOWN
		ENERGY=0.00
		SSD=0.00
		FIELD_INPLANE=50.00
		FIELD_CROSSPLANE=50.00
		FIELD_TYPE=RECTANGULAR
		GANTRY=0.00
		GANTRY_UPRIGHT_POSITION=0
		GANTRY_ROTATION=CW
		COLL_ANGLE=90.00
		SCAN_DEVICE=OCTAVIUS_1600_XDR
		ELECTROMETER=DETECTOR_INTERFACE
		ELECTROMETER_SN=5987
		DETECTOR=OCTAVIUS_1600_XDR
		DETECTOR_SN=191760
		FILTER=FF
		SCAN_CURVETYPE=CROSSPLANE_PROFILE
		SCAN_DEPTH=0.00
		SCAN_OFFAXIS_INPLANE=-30.00
		SCAN_ANGLE=0.00
		SCAN_DIAGONAL=NOT_DIAGONAL
		MEAS_PRESET=TIME_PRESET
		MEAS_TIME=36.800
		MEAS_UNIT=GY
		PRESSURE=995.30
		TEMPERATURE=19.10
		NORM_TEMPERATURE=20.00
		CORRECTION_FACTOR=1.1270
		CALIBRATION_FILE=C:\Users\Public\Documents\PTW\Common Files\Calibration Files\230554201_OCTAVIUS1600XDR_191760.cal
		CORRECTIONS=AIR_DENSITY_CORR;FACTOR_CORR;
		BEGIN_DATA
			-75.00		2.8562E-03		#1512
			-70.00		7.9312E-03		#1481
			-65.00		23.798E-03		#1450
			-60.00		57.847E-03		#1419
			-55.00		97.301E-03		#1388
			-50.00		120.57E-03		#1357
			-45.00		128.14E-03		#1326
			-40.00		130.81E-03		#1295
			-35.00		130.62E-03		#1264
			-32.50		130.28E-03		#1241
			-30.00		129.49E-03		#1205
			-27.50		128.59E-03		#1169
			-25.00		129.09E-03		#1133
			-22.50		128.95E-03		#1097
			-20.00		128.74E-03		#1061
			-17.50		129.42E-03		#1025
			-15.00		129.23E-03		#989
			-12.50		129.42E-03		#953
			-10.00		128.79E-03		#917
			-7.50		129.20E-03		#881
			-5.00		128.84E-03		#845
			-2.50		129.13E-03		#809
			0.00		128.62E-03		#773
			2.50		129.59E-03		#737
			5.00		128.41E-03		#701
			7.50		129.68E-03		#665
			10.00		128.18E-03		#629
			12.50		129.12E-03		#593
			15.00		129.08E-03		#557
			17.50		129.32E-03		#521
			20.00		129.57E-03		#485
			22.50		129.77E-03		#449
			25.00		130.18E-03		#413
			27.50		130.61E-03		#377
			30.00		130.39E-03		#341
			32.50		130.68E-03		#305
			35.00		130.63E-03		#270
			40.00		131.03E-03		#239
			45.00		128.20E-03		#208
			50.00		121.03E-03		#177
			55.00		97.338E-03		#146
			60.00		58.672E-03		#115
			65.00		23.865E-03		#84
			70.00		8.1125E-03		#53
			75.00		2.4406E-03		#22
		END_DATA
	END_SCAN  11
	BEGIN_SCAN  12
		TASK_NAME=DOSE
		GROUP_NAME=LR_36.8
		PROGRAM=BeamAdjust 2.3.0.25
		COMMENT=G000, E221_c-dhex3.6_4
		MEAS_DATE=08-Jun-2024 21:43:21
		LINAC=HIT
		MODALITY=P
		INPLANE_AXIS_DIR=TARGET_GUN
		CROSSPLANE_AXIS_DIR=LEFT_RIGHT
		DEPTH_AXIS_DIR=UP_DOWN
		ENERGY=0.00
		SSD=0.00
		FIELD_INPLANE=50.00
		FIELD_CROSSPLANE=50.00
		FIELD_TYPE=RECTANGULAR
		GANTRY=0.00
		GANTRY_UPRIGHT_POSITION=0
		GANTRY_ROTATION=CW
		COLL_ANGLE=90.00
		SCAN_DEVICE=OCTAVIUS_1600_XDR
		ELECTROMETER=DETECTOR_INTERFACE
		ELECTROMETER_SN=5987
		DETECTOR=OCTAVIUS_1600_XDR
		DETECTOR_SN=191760
		FILTER=FF
		SCAN_CURVETYPE=CROSSPLANE_PROFILE
		SCAN_DEPTH=0.00
		SCAN_OFFAXIS_INPLANE=-27.50
		SCAN_ANGLE=0.00
		SCAN_DIAGONAL=NOT_DIAGONAL
		MEAS_PRESET=TIME_PRESET
		MEAS_TIME=36.800
		MEAS_UNIT=GY
		PRESSURE=995.30
		TEMPERATURE=19.10
		NORM_TEMPERATURE=20.00
		CORRECTION_FACTOR=1.1270
		CALIBRATION_FILE=C:\Users\Public\Documents\PTW\Common Files\Calibration Files\230554201_OCTAVIUS1600XDR_191760.cal
		CORRECTIONS=AIR_DENSITY_CORR;FACTOR_CORR;
		BEGIN_DATA
			-32.50		130.03E-03		#1240
			-30.00		129.80E-03		#1204
			-27.50		128.93E-03		#1168
			-25.00		129.41E-03		#1132
			-22.50		129.10E-03		#1096
			-20.00		128.89E-03		#1060
			-17.50		128.08E-03		#1024
			-15.00		129.74E-03		#988
			-12.50		129.26E-03		#952
			-10.00		129.57E-03		#916
			-7.50		129.37E-03		#880
			-5.00		128.87E-03		#844
			-2.50		129.07E-03		#808
			0.00		128.92E-03		#772
			2.50		129.18E-03		#736
			5.00		128.76E-03		#700
			7.50		129.59E-03		#664
			10.00		129.31E-03		#628
			12.50		129.45E-03		#592
			15.00		129.08E-03		#556
			17.50		129.07E-03		#520
			20.00		129.94E-03		#484
			22.50		129.84E-03		#448
			25.00		130.36E-03		#412
			27.50		130.53E-03		#376
			30.00		130.41E-03		#340
			32.50		130.54E-03		#304
		END_DATA
	END_SCAN  12
	BEGIN_SCAN  13
		TASK_NAME=DOSE
		GROUP_NAME=LR_36.8
		PROGRAM=BeamAdjust 2.3.0.25
		COMMENT=G000, E221_c-dhex3.6_4
		MEAS_DATE=08-Jun-2024 21:43:21
		LINAC=HIT
		MODALITY=P
		INPLANE_AXIS_DIR=TARGET_GUN
		CROSSPLANE_AXIS_DIR=LEFT_RIGHT
		DEPTH_AXIS_DIR=UP_DOWN
		ENERGY=0.00
		SSD=0.00
		FIELD_INPLANE=50.00
		FIELD_CROSSPLANE=50.00
		FIELD_TYPE=RECTANGULAR
		GANTRY=0.00
		GANTRY_UPRIGHT_POSITION=0
		GANTRY_ROTATION=CW
		COLL_ANGLE=90.00
		SCAN_DEVICE=OCTAVIUS_1600_XDR
		ELECTROMETER=DETECTOR_INTERFACE
		ELECTROMETER_SN=5987
		DETECTOR=OCTAVIUS_1600_XDR
		DETECTOR_SN=191760
		FILTER=FF
		SCAN_CURVETYPE=CROSSPLANE_PROFILE
		SCAN_DEPTH=0.00
		SCAN_OFFAXIS_INPLANE=-25.00
		SCAN_ANGLE=0.00
		SCAN_DIAGONAL=NOT_DIAGONAL
		MEAS_PRESET=TIME_PRESET
		MEAS_TIME=36.800
		MEAS_UNIT=GY
		PRESSURE=995.30
		TEMPERATURE=19.10
		NORM_TEMPERATURE=20.00
		CORRECTION_FACTOR=1.1270
		CALIBRATION_FILE=C:\Users\Public\Documents\PTW\Common Files\Calibration Files\230554201_OCTAVIUS1600XDR_191760.cal
		CORRECTIONS=AIR_DENSITY_CORR;FACTOR_CORR;
		BEGIN_DATA
			-75.00		2.5867E-03		#1511
			-70.00		7.9017E-03		#1480
			-65.00		23.867E-03		#1449
			-60.00		58.209E-03		#1418
			-55.00		97.320E-03		#1387
			-50.00		120.74E-03		#1356
			-45.00		128.81E-03		#1325
			-40.00		130.32E-03		#1294
			-35.00		130.91E-03		#1263
			-32.50		130.02E-03		#1239
			-30.00		129.86E-03		#1203
			-27.50		129.14E-03		#1167
			-25.00		129.42E-03		#1131
			-22.50		129.35E-03		#1095
			-20.00		129.02E-03		#1059
			-17.50		130.24E-03		#1023
			-15.00		129.19E-03		#987
			-12.50		129.95E-03		#951
			-10.00		129.32E-03		#915
			-7.50		129.37E-03		#879
			-5.00		129.55E-03		#843
			-2.50		129.20E-03		#807
			0.00		128.32E-03		#771
			2.50		129.34E-03		#735
			5.00		128.54E-03		#699
			7.50		128.62E-03		#663
			10.00		128.87E-03		#627
			12.50		129.40E-03		#591
			15.00		129.23E-03		#555
			17.50		129.81E-03		#519
			20.00		130.49E-03		#483
			22.50		129.68E-03		#447
			25.00		130.45E-03		#411
			27.50		129.68E-03		#375
			30.00		131.28E-03		#339
			32.50		130.36E-03		#303
			35.00		131.05E-03		#269
			40.00		131.28E-03		#238
			45.00		128.88E-03		#207
			50.00		120.87E-03		#176
			55.00		98.305E-03		#145
			60.00		59.296E-03		#114
			65.00		24.456E-03		#83
			70.00		8.1566E-03		#52
			75.00		2.8027E-03		#21
		END_DATA
	END_SCAN  13
	BEGIN_SCAN  14
		TASK_NAME=DOSE
		GROUP_NAME=LR_36.8
		PROGRAM=BeamAdjust 2.3.0.25
		COMMENT=G000, E221_c-dhex3.6_4
		MEAS_DATE=08-Jun-2024 21:43:21
		LINAC=HIT
		MODALITY=P
		INPLANE_AXIS_DIR=TARGET_GUN
		CROSSPLANE_AXIS_DIR=LEFT_RIGHT
		DEPTH_AXIS_DIR=UP_DOWN
		ENERGY=0.00
		SSD=0.00
		FIELD_INPLANE=50.00
		FIELD_CROSSPLANE=50.00
		FIELD_TYPE=RECTANGULAR
		GANTRY=0.00
		GANTRY_UPRIGHT_POSITION=0
		GANTRY_ROTATION=CW
		COLL_ANGLE=90.00
		SCAN_DEVICE=OCTAVIUS_1600_XDR
		ELECTROMETER=DETECTOR_INTERFACE
		ELECTROMETER_SN=5987
		DETECTOR=OCTAVIUS_1600_XDR
		DETECTOR_SN=191760
		FILTER=FF
		SCAN_CURVETYPE=CROSSPLANE_PROFILE
		SCAN_DEPTH=0.00
		SCAN_OFFAXIS_INPLANE=-22.50
		SCAN_ANGLE=0.00
		SCAN_DIAGONAL=NOT_DIAGONAL
		MEAS_PRESET=TIME_PRESET
		MEAS_TIME=36.800
		MEAS_UNIT=GY
		PRESSURE=995.30
		TEMPERATURE=19.10
		NORM_TEMPERATURE=20.00
		CORRECTION_FACTOR=1.1270
		CALIBRATION_FILE=C:\Users\Public\Documents\PTW\Common Files\Calibration Files\230554201_OCTAVIUS1600XDR_191760.cal
		CORRECTIONS=AIR_DENSITY_CORR;FACTOR_CORR;
		BEGIN_DATA
			-32.50		130.02E-03		#1238
			-30.00		129.90E-03		#1202
			-27.50		129.20E-03		#1166
			-25.00		129.26E-03		#1130
			-22.50		129.25E-03		#1094
			-20.00		129.68E-03		#1058
			-17.50		129.41E-03		#1022
			-15.00		128.78E-03		#986
			-12.50		128.74E-03		#950
			-10.00		130.02E-03		#914
			-7.50		128.77E-03		#878
			-5.00		128.58E-03		#842
			-2.50		128.74E-03		#806
			0.00		128.82E-03		#770
			2.50		129.42E-03		#734
			5.00		128.87E-03		#698
			7.50		128.97E-03		#662
			10.00		128.67E-03		#626
			12.50		129.36E-03		#590
			15.00		129.66E-03		#554
			17.50		129.45E-03		#518
			20.00		129.45E-03		#482
			22.50		130.12E-03		#446
			25.00		130.22E-03		#410
			27.50		130.44E-03		#374
			30.00		130.63E-03		#338
			32.50		130.23E-03		#302
		END_DATA
	END_SCAN  14
	BEGIN_SCAN  15
		TASK_NAME=DOSE
		GROUP_NAME=LR_36.8
		PROGRAM=BeamAdjust 2.3.0.25
		COMMENT=G000, E221_c-dhex3.6_4
		MEAS_DATE=08-Jun-2024 21:43:21
		LINAC=HIT
		MODALITY=P
		INPLANE_AXIS_DIR=TARGET_GUN
		CROSSPLANE_AXIS_DIR=LEFT_RIGHT
		DEPTH_AXIS_DIR=UP_DOWN
		ENERGY=0.00
		SSD=0.00
		FIELD_INPLANE=50.00
		FIELD_CROSSPLANE=50.00
		FIELD_TYPE=RECTANGULAR
		GANTRY=0.00
		GANTRY_UPRIGHT_POSITION=0
		GANTRY_ROTATION=CW
		COLL_ANGLE=90.00
		SCAN_DEVICE=OCTAVIUS_1600_XDR
		ELECTROMETER=DETECTOR_INTERFACE
		ELECTROMETER_SN=5987
		DETECTOR=OCTAVIUS_1600_XDR
		DETECTOR_SN=191760
		FILTER=FF
		SCAN_CURVETYPE=CROSSPLANE_PROFILE
		SCAN_DEPTH=0.00
		SCAN_OFFAXIS_INPLANE=-20.00
		SCAN_ANGLE=0.00
		SCAN_DIAGONAL=NOT_DIAGONAL
		MEAS_PRESET=TIME_PRESET
		MEAS_TIME=36.800
		MEAS_UNIT=GY
		PRESSURE=995.30
		TEMPERATURE=19.10
		NORM_TEMPERATURE=20.00
		CORRECTION_FACTOR=1.1270
		CALIBRATION_FILE=C:\Users\Public\Documents\PTW\Common Files\Calibration Files\230554201_OCTAVIUS1600XDR_191760.cal
		CORRECTIONS=AIR_DENSITY_CORR;FACTOR_CORR;
		BEGIN_DATA
			-75.00		2.9002E-03		#1510
			-70.00		8.0093E-03		#1479
			-65.00		23.853E-03		#1448
			-60.00		57.617E-03		#1417
			-55.00		97.039E-03		#1386
			-50.00		120.70E-03		#1355
			-45.00		128.39E-03		#1324
			-40.00		130.59E-03		#1293
			-35.00		130.54E-03		#1262
			-32.50		129.82E-03		#1237
			-30.00		129.55E-03		#1201
			-27.50		129.02E-03		#1165
			-25.00		130.27E-03		#1129
			-22.50		129.67E-03		#1093
			-20.00		129.16E-03		#1057
			-17.50		129.44E-03		#1021
			-15.00		130.08E-03		#985
			-12.50		129.79E-03		#949
			-10.00		128.64E-03		#913
			-7.50		129.88E-03		#877
			-5.00		129.07E-03		#841
			-2.50		129.11E-03		#805
			0.00		128.26E-03		#769
			2.50		128.78E-03		#733
			5.00		128.70E-03		#697
			7.50		129.08E-03		#661
			10.00		129.26E-03		#625
			12.50		129.46E-03		#589
			15.00		129.42E-03		#553
			17.50		129.41E-03		#517
			20.00		130.23E-03		#481
			22.50		129.98E-03		#445
			25.00		130.52E-03		#409
			27.50		130.28E-03		#373
			30.00		130.17E-03		#337
			32.50		130.63E-03		#301
			35.00		131.50E-03		#268
			40.00		131.10E-03		#237
			45.00		129.11E-03		#206
			50.00		121.21E-03		#175
			55.00		97.490E-03		#144
			60.00		59.738E-03		#113
			65.00		24.533E-03		#82
			70.00		7.9785E-03		#51
			75.00		2.8810E-03		#20
		END_DATA
	END_SCAN  15
	BEGIN_SCAN  16
		TASK_NAME=DOSE
		GROUP_NAME=LR_36.8
		PROGRAM=BeamAdjust 2.3.0.25
