BEGIN_SCAN_DATA
	FORMAT=CC-Export V1.9                  
	FILE_CREATION_DATE=08-Jun-2024 22:02:23
	LAST_MODIFIED=08-Jun-2024 22:02:23
	BEGIN_SCAN  1
		TASK_NAME=DOSE
		GROUP_NAME=LR_72.0
		PROGRAM=BeamAdjust 2.3.0.25
		COMMENT=G000, E221_c-dhex3.6_4
		MEAS_DATE=08-Jun-2024 22:02:15
		LINAC=HIT
		MODALITY=P
		INPLANE_AXIS_DIR=TARGET_GUN
		CROSSPLANE_AXIS_DIR=LEFT_RIGHT
		DEPTH_AXIS_DIR=UP_DOWN
		ENERGY=0.00
		SSD=0.00
		FIELD_INPLANE=50.00
		FIELD_CROSSPLANE=50.00
		FIELD_TYPE=RECTANGULAR
		GANTRY=0.00
		GANTRY_UPRIGHT_POSITION=0
		GANTRY_ROTATION=CW
		COLL_ANGLE=90.00
		SCAN_DEVICE=OCTAVIUS_1600_XDR
		ELECTROMETER=DETECTOR_INTERFACE
		ELECTROMETER_SN=5987
		DETECTOR=OCTAVIUS_1600_XDR
		DETECTOR_SN=191760
		FILTER=FF
		SCAN_CURVETYPE=CROSSPLANE_PROFILE
		SCAN_DEPTH=0.00
		SCAN_OFFAXIS_INPLANE=-75.00
		SCAN_ANGLE=0.00
		SCAN_DIAGONAL=NOT_DIAGONAL
		MEAS_PRESET=TIME_PRESET
		MEAS_TIME=72.000
		MEAS_UNIT=GY
		PRESSURE=995.30
		TEMPERATURE=19.10
		NORM_TEMPERATURE=20.00
		CORRECTION_FACTOR=1.1270
		CALIBRATION_FILE=C:\Users\Public\Documents\PTW\Common Files\Calibration Files\230554201_OCTAVIUS1600XDR_191760.cal
		CORRECTIONS=AIR_DENSITY_CORR;FACTOR_CORR;
		BEGIN_DATA
			-75.00		379.70E-06		#1521
			-70.00		107.89E-06		#1490
			-65.00		226.67E-06		#1459
			-60.00		270.76E-06		#1428
			-55.00		399.35E-06		#1397
			-50.00		486.39E-06		#1366
			-45.00		546.94E-06		#1335
			-40.00		722.88E-06		#1304
			-35.00		577.80E-06		#1273
			-30.00		793.10E-06		#1215
			-25.00		1.3764E-03		#1143
			-20.00		721.25E-06		#1071
			-15.00		1.3699E-03		#999
			-10.00		757.25E-06		#927
			-5.00		877.62E-06		#855
			0.00		534.13E-06		#783
			5.00		998.67E-06		#711
			10.00		647.90E-06		#639
			15.00		936.51E-06		#567
			20.00		695.78E-06		#495
			25.00		1.1621E-03		#423
			30.00		-137.97E-06		#351
			35.00		1.4878E-03		#279
			40.00		1.3822E-03		#248
			45.00		734.79E-06		#217
			50.00		51.808E-06		#186
			55.00		820.07E-06		#155
			60.00		184.97E-06		#124
			65.00		573.85E-06		#93
			70.00		644.16E-06		#62
			75.00		-389.54E-06		#31
		END_DATA
	END_SCAN  1
	BEGIN_SCAN  2
		TASK_NAME=DOSE
		GROUP_NAME=LR_72.0
		PROGRAM=BeamAdjust 2.3.0.25
		COMMENT=G000, E221_c-dhex3.6_4
		MEAS_DATE=08-Jun-2024 22:02:15
		LINAC=HIT
		MODALITY=P
		INPLANE_AXIS_DIR=TARGET_GUN
		CROSSPLANE_AXIS_DIR=LEFT_RIGHT
		DEPTH_AXIS_DIR=UP_DOWN
		ENERGY=0.00
		SSD=0.00
		FIELD_INPLANE=50.00
		FIELD_CROSSPLANE=50.00
		FIELD_TYPE=RECTANGULAR
		GANTRY=0.00
		GANTRY_UPRIGHT_POSITION=0
		GANTRY_ROTATION=CW
		COLL_ANGLE=90.00
		SCAN_DEVICE=OCTAVIUS_1600_XDR
		ELECTROMETER=DETECTOR_INTERFACE
		ELECTROMETER_SN=5987
		DETECTOR=OCTAVIUS_1600_XDR
		DETECTOR_SN=191760
		FILTER=FF
		SCAN_CURVETYPE=CROSSPLANE_PROFILE
		SCAN_DEPTH=0.00
		SCAN_OFFAXIS_INPLANE=-70.00
		SCAN_ANGLE=0.00
		SCAN_DIAGONAL=NOT_DIAGONAL
		MEAS_PRESET=TIME_PRESET
		MEAS_TIME=72.000
		MEAS_UNIT=GY
		PRESSURE=995.30
		TEMPERATURE=19.10
		NORM_TEMPERATURE=20.00
		CORRECTION_FACTOR=1.1270
		CALIBRATION_FILE=C:\Users\Public\Documents\PTW\Common Files\Calibration Files\230554201_OCTAVIUS1600XDR_191760.cal
		CORRECTIONS=AIR_DENSITY_CORR;FACTOR_CORR;
		BEGIN_DATA
			-75.00		369.97E-06		#1520
			-70.00		412.34E-06		#1489
			-65.00		666.24E-06		#1458
			-60.00		720.07E-06		#1427
			-55.00		1.4781E-03		#1396
			-50.00		1.4156E-03		#1365
			-45.00		2.3844E-03		#1334
			-40.00		1.7082E-03		#1303
			-35.00		2.2460E-03		#1272
			-30.00		2.0707E-03		#1214
			-25.00		1.7020E-03		#1142
			-20.00		2.0833E-03		#1070
			-15.00		1.8735E-03		#998
			-10.00		2.0038E-03		#926
			-5.00		2.6797E-03		#854
			0.00		2.5575E-03		#782
			5.00		2.0604E-03		#710
			10.00		2.2405E-03		#638
			15.00		2.1753E-03		#566
			20.00		1.3895E-03		#494
			25.00		2.6256E-03		#422
			30.00		2.1376E-03		#350
			35.00		2.2403E-03		#278
			40.00		1.7736E-03		#247
			45.00		1.8599E-03		#216
			50.00		2.1269E-03		#185
			55.00		1.1680E-03		#154
			60.00		1.1114E-03		#123
			65.00		318.81E-06		#92
			70.00		252.61E-06		#61
			75.00		373.45E-06		#30
		END_DATA
	END_SCAN  2
	BEGIN_SCAN  3
		TASK_NAME=DOSE
		GROUP_NAME=LR_72.0
		PROGRAM=BeamAdjust 2.3.0.25
		COMMENT=G000, E221_c-dhex3.6_4
		MEAS_DATE=08-Jun-2024 22:02:15
		LINAC=HIT
		MODALITY=P
		INPLANE_AXIS_DIR=TARGET_GUN
		CROSSPLANE_AXIS_DIR=LEFT_RIGHT
		DEPTH_AXIS_DIR=UP_DOWN
		ENERGY=0.00
		SSD=0.00
		FIELD_INPLANE=50.00
		FIELD_CROSSPLANE=50.00
		FIELD_TYPE=RECTANGULAR
		GANTRY=0.00
		GANTRY_UPRIGHT_POSITION=0
		GANTRY_ROTATION=CW
		COLL_ANGLE=90.00
		SCAN_DEVICE=OCTAVIUS_1600_XDR
		ELECTROMETER=DETECTOR_INTERFACE
		ELECTROMETER_SN=5987
		DETECTOR=OCTAVIUS_1600_XDR
		DETECTOR_SN=191760
		FILTER=FF
		SCAN_CURVETYPE=CROSSPLANE_PROFILE
		SCAN_DEPTH=0.00
		SCAN_OFFAXIS_INPLANE=-65.00
		SCAN_ANGLE=0.00
		SCAN_DIAGONAL=NOT_DIAGONAL
		MEAS_PRESET=TIME_PRESET
		MEAS_TIME=72.000
		MEAS_UNIT=GY
		PRESSURE=995.30
		TEMPERATURE=19.10
		NORM_TEMPERATURE=20.00
		CORRECTION_FACTOR=1.1270
		CALIBRATION_FILE=C:\Users\Public\Documents\PTW\Common Files\Calibration Files\230554201_OCTAVIUS1600XDR_191760.cal
		CORRECTIONS=AIR_DENSITY_CORR;FACTOR_CORR;
		BEGIN_DATA
			-75.00		192.72E-06		#1519
			-70.00		358.40E-06		#1488
			-65.00		2.5098E-03		#1457
			-60.00		10.402E-03		#1426
			-55.00		16.799E-03		#1395
			-50.00		18.129E-03		#1364
			-45.00		17.216E-03		#1333
			-40.00		17.233E-03		#1302
			-35.00		17.951E-03		#1271
			-30.00		18.347E-03		#1213
			-25.00		18.225E-03		#1141
			-20.00		18.370E-03		#1069
			-15.00		19.478E-03		#997
			-10.00		19.513E-03		#925
			-5.00		19.626E-03		#853
			0.00		19.971E-03		#781
			5.00		19.715E-03		#709
			10.00		19.201E-03		#637
			15.00		18.669E-03		#565
			20.00		19.238E-03		#493
			25.00		20.343E-03		#421
			30.00		20.445E-03		#349
			35.00		21.273E-03		#277
			40.00		20.967E-03		#246
			45.00		22.260E-03		#215
			50.00		21.191E-03		#184
			55.00		17.372E-03		#153
			60.00		5.9592E-03		#122
			65.00		895.36E-06		#91
			70.00		291.95E-06		#60
			75.00		220.82E-06		#29
		END_DATA
	END_SCAN  3
	BEGIN_SCAN  4
		TASK_NAME=DOSE
		GROUP_NAME=LR_72.0
		PROGRAM=BeamAdjust 2.3.0.25
		COMMENT=G000, E221_c-dhex3.6_4
		MEAS_DATE=08-Jun-2024 22:02:15
		LINAC=HIT
		MODALITY=P
		INPLANE_AXIS_DIR=TARGET_GUN
		CROSSPLANE_AXIS_DIR=LEFT_RIGHT
		DEPTH_AXIS_DIR=UP_DOWN
		ENERGY=0.00
		SSD=0.00
		FIELD_INPLANE=50.00
		FIELD_CROSSPLANE=50.00
		FIELD_TYPE=RECTANGULAR
		GANTRY=0.00
		GANTRY_UPRIGHT_POSITION=0
		GANTRY_ROTATION=CW
		COLL_ANGLE=90.00
		SCAN_DEVICE=OCTAVIUS_1600_XDR
		ELECTROMETER=DETECTOR_INTERFACE
		ELECTROMETER_SN=5987
		DETECTOR=OCTAVIUS_1600_XDR
		DETECTOR_SN=191760
		FILTER=FF
		SCAN_CURVETYPE=CROSSPLANE_PROFILE
		SCAN_DEPTH=0.00
		SCAN_OFFAXIS_INPLANE=-60.00
		SCAN_ANGLE=0.00
		SCAN_DIAGONAL=NOT_DIAGONAL
		MEAS_PRESET=TIME_PRESET
		MEAS_TIME=72.000
		MEAS_UNIT=GY
		PRESSURE=995.30
		TEMPERATURE=19.10
		NORM_TEMPERATURE=20.00
		CORRECTION_FACTOR=1.1270
		CALIBRATION_FILE=C:\Users\Public\Documents\PTW\Common Files\Calibration Files\230554201_OCTAVIUS1600XDR_191760.cal
		CORRECTIONS=AIR_DENSITY_CORR;FACTOR_CORR;
		BEGIN_DATA
			-75.00		738.67E-06		#1518
			-70.00		868.79E-06		#1487
			-65.00		10.368E-03		#1456
			-60.00		58.758E-03		#1425
			-55.00		91.881E-03		#1394
			-50.00		93.773E-03		#1363
			-45.00		91.428E-03		#1332
			-40.00		92.125E-03		#1301
			-35.00		92.308E-03		#1270
			-30.00		92.750E-03		#1212
			-25.00		93.024E-03		#1140
			-20.00		93.920E-03		#1068
			-15.00		93.593E-03		#996
			-10.00		95.129E-03		#924
			-5.00		94.688E-03		#852
			0.00		94.522E-03		#780
			5.00		93.678E-03		#708
			10.00		93.150E-03		#636
			15.00		93.713E-03		#564
			20.00		94.982E-03		#492
			25.00		95.260E-03		#420
			30.00		97.333E-03		#348
			35.00		96.817E-03		#276
			40.00		97.997E-03		#245
			45.00		98.009E-03		#214
			50.00		98.157E-03		#183
			55.00		81.930E-03		#152
			60.00		25.220E-03		#121
			65.00		2.8257E-03		#90
			70.00		786.23E-06		#59
			75.00		619.65E-06		#28
		END_DATA
	END_SCAN  4
	BEGIN_SCAN  5
		TASK_NAME=DOSE
		GROUP_NAME=LR_72.0
		PROGRAM=BeamAdjust 2.3.0.25
		COMMENT=G000, E221_c-dhex3.6_4
		MEAS_DATE=08-Jun-2024 22:02:15
		LINAC=HIT
		MODALITY=P
		INPLANE_AXIS_DIR=TARGET_GUN
		CROSSPLANE_AXIS_DIR=LEFT_RIGHT
		DEPTH_AXIS_DIR=UP_DOWN
		ENERGY=0.00
		SSD=0.00
		FIELD_INPLANE=50.00
		FIELD_CROSSPLANE=50.00
		FIELD_TYPE=RECTANGULAR
		GANTRY=0.00
		GANTRY_UPRIGHT_POSITION=0
		GANTRY_ROTATION=CW
		COLL_ANGLE=90.00
		SCAN_DEVICE=OCTAVIUS_1600_XDR
		ELECTROMETER=DETECTOR_INTERFACE
		ELECTROMETER_SN=5987
		DETECTOR=OCTAVIUS_1600_XDR
		DETECTOR_SN=191760
		FILTER=FF
		SCAN_CURVETYPE=CROSSPLANE_PROFILE
		SCAN_DEPTH=0.00
		SCAN_OFFAXIS_INPLANE=-55.00
		SCAN_ANGLE=0.00
		SCAN_DIAGONAL=NOT_DIAGONAL
		MEAS_PRESET=TIME_PRESET
		MEAS_TIME=72.000
		MEAS_UNIT=GY
		PRESSURE=995.30
		TEMPERATURE=19.10
		NORM_TEMPERATURE=20.00
		CORRECTION_FACTOR=1.1270
		CALIBRATION_FILE=C:\Users\Public\Documents\PTW\Common Files\Calibration Files\230554201_OCTAVIUS1600XDR_191760.cal
		CORRECTIONS=AIR_DENSITY_CORR;FACTOR_CORR;
		BEGIN_DATA
			-75.00		561.13E-06		#1517
			-70.00		1.7826E-03		#1486
			-65.00		14.762E-03		#1455
			-60.00		84.203E-03		#1424
			-55.00		126.21E-03		#1393
			-50.00		128.75E-03		#1362
			-45.00		129.04E-03		#1331
			-40.00		128.37E-03		#1300
			-35.00		128.25E-03		#1269
			-30.00		128.19E-03		#1211
			-25.00		127.60E-03		#1139
			-20.00		127.00E-03		#1067
			-15.00		127.75E-03		#995
			-10.00		127.11E-03		#923
			-5.00		127.05E-03		#851
			0.00		127.30E-03		#779
			5.00		127.02E-03		#707
			10.00		126.86E-03		#635
			15.00		127.51E-03		#563
			20.00		129.52E-03		#491
			25.00		127.69E-03		#419
			30.00		128.93E-03		#347
			35.00		129.24E-03		#275
			40.00		128.28E-03		#244
			45.00		130.35E-03		#213
			50.00		128.72E-03		#182
			55.00		107.73E-03		#151
			60.00		32.978E-03		#120
			65.00		3.2449E-03		#89
			70.00		658.64E-06		#58
			75.00		-185.69E-06		#27
		END_DATA
	END_SCAN  5
	BEGIN_SCAN  6
		TASK_NAME=DOSE
		GROUP_NAME=LR_72.0
		PROGRAM=BeamAdjust 2.3.0.25
		COMMENT=G000, E221_c-dhex3.6_4
		MEAS_DATE=08-Jun-2024 22:02:15
		LINAC=HIT
		MODALITY=P
		INPLANE_AXIS_DIR=TARGET_GUN
		CROSSPLANE_AXIS_DIR=LEFT_RIGHT
		DEPTH_AXIS_DIR=UP_DOWN
		ENERGY=0.00
		SSD=0.00
		FIELD_INPLANE=50.00
		FIELD_CROSSPLANE=50.00
		FIELD_TYPE=RECTANGULAR
		GANTRY=0.00
		GANTRY_UPRIGHT_POSITION=0
		GANTRY_ROTATION=CW
		COLL_ANGLE=90.00
		SCAN_DEVICE=OCTAVIUS_1600_XDR
		ELECTROMETER=DETECTOR_INTERFACE
		ELECTROMETER_SN=5987
		DETECTOR=OCTAVIUS_1600_XDR
		DETECTOR_SN=191760
		FILTER=FF
		SCAN_CURVETYPE=CROSSPLANE_PROFILE
		SCAN_DEPTH=0.00
		SCAN_OFFAXIS_INPLANE=-50.00
		SCAN_ANGLE=0.00
		SCAN_DIAGONAL=NOT_DIAGONAL
		MEAS_PRESET=TIME_PRESET
		MEAS_TIME=72.000
		MEAS_UNIT=GY
		PRESSURE=995.30
		TEMPERATURE=19.10
		NORM_TEMPERATURE=20.00
		CORRECTION_FACTOR=1.1270
		CALIBRATION_FILE=C:\Users\Public\Documents\PTW\Common Files\Calibration Files\230554201_OCTAVIUS1600XDR_191760.cal
		CORRECTIONS=AIR_DENSITY_CORR;FACTOR_CORR;
		BEGIN_DATA
			-75.00		664.93E-06		#1516
			-70.00		1.7562E-03		#1485
			-65.00		15.343E-03		#1454
			-60.00		86.786E-03		#1423
			-55.00		129.19E-03		#1392
			-50.00		133.26E-03		#1361
			-45.00		132.79E-03		#1330
			-40.00		133.24E-03		#1299
			-35.00		132.22E-03		#1268
			-30.00		131.38E-03		#1210
			-25.00		129.81E-03		#1138
			-20.00		130.94E-03		#1066
			-15.00		130.40E-03		#994
			-10.00		130.27E-03		#922
			-5.00		131.15E-03		#850
			0.00		130.45E-03		#778
			5.00		130.28E-03		#706
			10.00		131.06E-03		#634
			15.00		131.14E-03		#562
			20.00		132.55E-03		#490
			25.00		131.66E-03		#418
			30.00		131.53E-03		#346
			35.00		133.24E-03		#274
			40.00		132.95E-03		#243
			45.00		133.12E-03		#212
			50.00		131.88E-03		#181
			55.00		110.45E-03		#150
			60.00		34.413E-03		#119
			65.00		3.4955E-03		#88
			70.00		1.2983E-03		#57
			75.00		126.42E-06		#26
		END_DATA
	END_SCAN  6
	BEGIN_SCAN  7
		TASK_NAME=DOSE
		GROUP_NAME=LR_72.0
		PROGRAM=BeamAdjust 2.3.0.25
		COMMENT=G000, E221_c-dhex3.6_4
		MEAS_DATE=08-Jun-2024 22:02:15
		LINAC=HIT
		MODALITY=P
		INPLANE_AXIS_DIR=TARGET_GUN
		CROSSPLANE_AXIS_DIR=LEFT_RIGHT
		DEPTH_AXIS_DIR=UP_DOWN
		ENERGY=0.00
		SSD=0.00
		FIELD_INPLANE=50.00
		FIELD_CROSSPLANE=50.00
		FIELD_TYPE=RECTANGULAR
		GANTRY=0.00
		GANTRY_UPRIGHT_POSITION=0
		GANTRY_ROTATION=CW
		COLL_ANGLE=90.00
		SCAN_DEVICE=OCTAVIUS_1600_XDR
		ELECTROMETER=DETECTOR_INTERFACE
		ELECTROMETER_SN=5987
		DETECTOR=OCTAVIUS_1600_XDR
		DETECTOR_SN=191760
		FILTER=FF
		SCAN_CURVETYPE=CROSSPLANE_PROFILE
		SCAN_DEPTH=0.00
		SCAN_OFFAXIS_INPLANE=-45.00
		SCAN_ANGLE=0.00
		SCAN_DIAGONAL=NOT_DIAGONAL
		MEAS_PRESET=TIME_PRESET
		MEAS_TIME=72.000
		MEAS_UNIT=GY
		PRESSURE=995.30
		TEMPERATURE=19.10
		NORM_TEMPERATURE=20.00
		CORRECTION_FACTOR=1.1270
		CALIBRATION_FILE=C:\Users\Public\Documents\PTW\Common Files\Calibration Files\230554201_OCTAVIUS1600XDR_191760.cal
		CORRECTIONS=AIR_DENSITY_CORR;FACTOR_CORR;
		BEGIN_DATA
			-75.00		901.45E-06		#1515
			-70.00		1.4775E-03		#1484
			-65.00		15.799E-03		#1453
			-60.00		85.789E-03		#1422
			-55.00		129.27E-03		#1391
			-50.00		132.80E-03		#1360
			-45.00		133.85E-03		#1329
			-40.00		132.56E-03		#1298
			-35.00		132.11E-03		#1267
			-30.00		131.31E-03		#1209
			-25.00		130.86E-03		#1137
			-20.00		130.20E-03		#1065
			-15.00		131.38E-03		#993
			-10.00		130.65E-03		#921
			-5.00		130.78E-03		#849
			0.00		130.88E-03		#777
			5.00		130.50E-03		#705
			10.00		130.68E-03		#633
			15.00		129.77E-03		#561
			20.00		130.96E-03		#489
			25.00		131.46E-03		#417
			30.00		131.45E-03		#345
			35.00		132.20E-03		#273
			40.00		133.01E-03		#242
			45.00		133.66E-03		#211
			50.00		132.30E-03		#180
			55.00		109.00E-03		#149
			60.00		34.859E-03		#118
			65.00		3.8536E-03		#87
			70.00		877.83E-06		#56
			75.00		323.87E-06		#25
		END_DATA
	END_SCAN  7
	BEGIN_SCAN  8
		TASK_NAME=DOSE
		GROUP_NAME=LR_72.0
		PROGRAM=BeamAdjust 2.3.0.25
		COMMENT=G000, E221_c-dhex3.6_4
		MEAS_DATE=08-Jun-2024 22:02:15
		LINAC=HIT
		MODALITY=P
		INPLANE_AXIS_DIR=TARGET_GUN
		CROSSPLANE_AXIS_DIR=LEFT_RIGHT
		DEPTH_AXIS_DIR=UP_DOWN
		ENERGY=0.00
		SSD=0.00
		FIELD_INPLANE=50.00
		FIELD_CROSSPLANE=50.00
		FIELD_TYPE=RECTANGULAR
		GANTRY=0.00
		GANTRY_UPRIGHT_POSITION=0
		GANTRY_ROTATION=CW
		COLL_ANGLE=90.00
		SCAN_DEVICE=OCTAVIUS_1600_XDR
		ELECTROMETER=DETECTOR_INTERFACE
		ELECTROMETER_SN=5987
		DETECTOR=OCTAVIUS_1600_XDR
		DETECTOR_SN=191760
		FILTER=FF
		SCAN_CURVETYPE=CROSSPLANE_PROFILE
		SCAN_DEPTH=0.00
		SCAN_OFFAXIS_INPLANE=-40.00
		SCAN_ANGLE=0.00
		SCAN_DIAGONAL=NOT_DIAGONAL
		MEAS_PRESET=TIME_PRESET
		MEAS_TIME=72.000
		MEAS_UNIT=GY
		PRESSURE=995.30
		TEMPERATURE=19.10
		NORM_TEMPERATURE=20.00
		CORRECTION_FACTOR=1.1270
		CALIBRATION_FILE=C:\Users\Public\Documents\PTW\Common Files\Calibration Files\230554201_OCTAVIUS1600XDR_191760.cal
		CORRECTIONS=AIR_DENSITY_CORR;FACTOR_CORR;
		BEGIN_DATA
			-75.00		556.53E-06		#1514
			-70.00		1.9072E-03		#1483
			-65.00		15.866E-03		#1452
			-60.00		85.195E-03		#1421
			-55.00		129.01E-03		#1390
			-50.00		132.18E-03		#1359
			-45.00		132.70E-03		#1328
			-40.00		133.04E-03		#1297
			-35.00		133.01E-03		#1266
			-30.00		132.04E-03		#1208
			-25.00		131.68E-03		#1136
			-20.00		130.82E-03		#1064
			-15.00		130.88E-03		#992
			-10.00		130.31E-03		#920
			-5.00		130.45E-03		#848
			0.00		131.02E-03		#776
			5.00		131.31E-03		#704
			10.00		131.31E-03		#632
			15.00		130.55E-03		#560
			20.00		131.71E-03		#488
			25.00		131.90E-03		#416
			30.00		131.89E-03		#344
			35.00		132.31E-03		#272
			40.00		132.65E-03		#241
			45.00		132.86E-03		#210
			50.00		130.77E-03		#179
			55.00		110.48E-03		#148
			60.00		35.263E-03		#117
			65.00		3.8011E-03		#86
			70.00		938.42E-06		#55
			75.00		1.0167E-03		#24
		END_DATA
	END_SCAN  8
	BEGIN_SCAN  9
		TASK_NAME=DOSE
		GROUP_NAME=LR_72.0
		PROGRAM=BeamAdjust 2.3.0.25
		COMMENT=G000, E221_c-dhex3.6_4
		MEAS_DATE=08-Jun-2024 22:02:15
		LINAC=HIT
		MODALITY=P
		INPLANE_AXIS_DIR=TARGET_GUN
		CROSSPLANE_AXIS_DIR=LEFT_RIGHT
		DEPTH_AXIS_DIR=UP_DOWN
		ENERGY=0.00
		SSD=0.00
		FIELD_INPLANE=50.00
		FIELD_CROSSPLANE=50.00
		FIELD_TYPE=RECTANGULAR
		GANTRY=0.00
		GANTRY_UPRIGHT_POSITION=0
		GANTRY_ROTATION=CW
		COLL_ANGLE=90.00
		SCAN_DEVICE=OCTAVIUS_1600_XDR
		ELECTROMETER=DETECTOR_INTERFACE
		ELECTROMETER_SN=5987
		DETECTOR=OCTAVIUS_1600_XDR
		DETECTOR_SN=191760
		FILTER=FF
		SCAN_CURVETYPE=CROSSPLANE_PROFILE
		SCAN_DEPTH=0.00
		SCAN_OFFAXIS_INPLANE=-35.00
		SCAN_ANGLE=0.00
		SCAN_DIAGONAL=NOT_DIAGONAL
		MEAS_PRESET=TIME_PRESET
		MEAS_TIME=72.000
		MEAS_UNIT=GY
		PRESSURE=995.30
		TEMPERATURE=19.10
		NORM_TEMPERATURE=20.00
		CORRECTION_FACTOR=1.1270
		CALIBRATION_FILE=C:\Users\Public\Documents\PTW\Common Files\Calibration Files\230554201_OCTAVIUS1600XDR_191760.cal
		CORRECTIONS=AIR_DENSITY_CORR;FACTOR_CORR;
		BEGIN_DATA
			-75.00		1.0572E-03		#1513
			-70.00		1.6545E-03		#1482
			-65.00		15.491E-03		#1451
			-60.00		84.075E-03		#1420
			-55.00		127.18E-03		#1389
			-50.00		131.49E-03		#1358
			-45.00		132.24E-03		#1327
			-40.00		131.31E-03		#1296
			-35.00		130.60E-03		#1265
			-30.00		129.37E-03		#1207
			-25.00		129.12E-03		#1135
			-20.00		129.57E-03		#1063
			-15.00		128.84E-03		#991
			-10.00		128.87E-03		#919
			-5.00		128.87E-03		#847
			0.00		129.03E-03		#775
			5.00		128.66E-03		#703
			10.00		128.83E-03		#631
			15.00		127.91E-03		#559
			20.00		129.46E-03		#487
			25.00		130.47E-03		#415
			30.00		130.47E-03		#343
			35.00		131.54E-03		#271
			40.00		131.11E-03		#240
			45.00		131.13E-03		#209
			50.00		130.16E-03		#178
			55.00		108.90E-03		#147
			60.00		35.653E-03		#116
			65.00		3.5966E-03		#85
			70.00		1.1073E-03		#54
			75.00		311.57E-06		#23
		END_DATA
	END_SCAN  9
	BEGIN_SCAN  10
		TASK_NAME=DOSE
		GROUP_NAME=LR_72.0
		PROGRAM=BeamAdjust 2.3.0.25
		COMMENT=G000, E221_c-dhex3.6_4
		MEAS_DATE=08-Jun-2024 22:02:15
		LINAC=HIT
		MODALITY=P
		INPLANE_AXIS_DIR=TARGET_GUN
		CROSSPLANE_AXIS_DIR=LEFT_RIGHT
		DEPTH_AXIS_DIR=UP_DOWN
		ENERGY=0.00
		SSD=0.00
		FIELD_INPLANE=50.00
		FIELD_CROSSPLANE=50.00
		FIELD_TYPE=RECTANGULAR
		GANTRY=0.00
		GANTRY_UPRIGHT_POSITION=0
		GANTRY_ROTATION=CW
		COLL_ANGLE=90.00
		SCAN_DEVICE=OCTAVIUS_1600_XDR
		ELECTROMETER=DETECTOR_INTERFACE
		ELECTROMETER_SN=5987
		DETECTOR=OCTAVIUS_1600_XDR
		DETECTOR_SN=191760
		FILTER=FF
		SCAN_CURVETYPE=CROSSPLANE_PROFILE
		SCAN_DEPTH=0.00
		SCAN_OFFAXIS_INPLANE=-32.50
		SCAN_ANGLE=0.00
		SCAN_DIAGONAL=NOT_DIAGONAL
		MEAS_PRESET=TIME_PRESET
		MEAS_TIME=72.000
		MEAS_UNIT=GY
		PRESSURE=995.30
		TEMPERATURE=19.10
		NORM_TEMPERATURE=20.00
		CORRECTION_FACTOR=1.1270
		CALIBRATION_FILE=C:\Users\Public\Documents\PTW\Common Files\Calibration Files\230554201_OCTAVIUS1600XDR_191760.cal
		CORRECTIONS=AIR_DENSITY_CORR;FACTOR_CORR;
		BEGIN_DATA
			-32.50		130.11E-03		#1242
			-30.00		129.11E-03		#1206
			-27.50		129.64E-03		#1170
			-25.00		129.70E-03		#1134
			-22.50		129.09E-03		#1098
			-20.00		129.48E-03		#1062
			-17.50		129.42E-03		#1026
			-15.00		129.50E-03		#990
			-12.50		129.09E-03		#954
			-10.00		128.66E-03		#918
			-7.50		128.85E-03		#882
			-5.00		129.29E-03		#846
			-2.50		129.90E-03		#810
			0.00		129.43E-03		#774
			2.50		128.25E-03		#738
			5.00		128.73E-03		#702
			7.50		128.15E-03		#666
			10.00		128.74E-03		#630
			12.50		129.72E-03		#594
			15.00		128.84E-03		#558
			17.50		130.47E-03		#522
			20.00		129.42E-03		#486
			22.50		130.49E-03		#450
			25.00		130.40E-03		#414
			27.50		130.59E-03		#378
			30.00		131.34E-03		#342
			32.50		130.79E-03		#306
		END_DATA
	END_SCAN  10
	BEGIN_SCAN  11
		TASK_NAME=DOSE
		GROUP_NAME=LR_72.0
		PROGRAM=BeamAdjust 2.3.0.25
		COMMENT=G000, E221_c-dhex3.6_4
		MEAS_DATE=08-Jun-2024 22:02:15
		LINAC=HIT
		MODALITY=P
		INPLANE_AXIS_DIR=TARGET_GUN
		CROSSPLANE_AXIS_DIR=LEFT_RIGHT
		DEPTH_AXIS_DIR=UP_DOWN
		ENERGY=0.00
		SSD=0.00
		FIELD_INPLANE=50.00
		FIELD_CROSSPLANE=50.00
		FIELD_TYPE=RECTANGULAR
		GANTRY=0.00
		GANTRY_UPRIGHT_POSITION=0
		GANTRY_ROTATION=CW
		COLL_ANGLE=90.00
		SCAN_DEVICE=OCTAVIUS_1600_XDR
		ELECTROMETER=DETECTOR_INTERFACE
		ELECTROMETER_SN=5987
		DETECTOR=OCTAVIUS_1600_XDR
		DETECTOR_SN=191760
		FILTER=FF
		SCAN_CURVETYPE=CROSSPLANE_PROFILE
		SCAN_DEPTH=0.00
		SCAN_OFFAXIS_INPLANE=-30.00
		SCAN_ANGLE=0.00
		SCAN_DIAGONAL=NOT_DIAGONAL
		MEAS_PRESET=TIME_PRESET
		MEAS_TIME=72.000
		MEAS_UNIT=GY
		PRESSURE=995.30
		TEMPERATURE=19.10
		NORM_TEMPERATURE=20.00
		CORRECTION_FACTOR=1.1270
		CALIBRATION_FILE=C:\Users\Public\Documents\PTW\Common Files\Calibration Files\230554201_OCTAVIUS1600XDR_191760.cal
		CORRECTIONS=AIR_DENSITY_CORR;FACTOR_CORR;
		BEGIN_DATA
			-75.00		564.97E-06		#1512
			-70.00		1.7492E-03		#1481
			-65.00		15.437E-03		#1450
			-60.00		84.360E-03		#1419
			-55.00		128.58E-03		#1388
			-50.00		131.57E-03		#1357
			-45.00		131.53E-03		#1326
			-40.00		131.74E-03		#1295
			-35.00		131.41E-03		#1264
			-32.50		130.68E-03		#1241
			-30.00		130.13E-03		#1205
			-27.50		128.56E-03		#1169
			-25.00		129.50E-03		#1133
			-22.50		129.42E-03		#1097
			-20.00		129.73E-03		#1061
			-17.50		130.16E-03		#1025
			-15.00		130.17E-03		#989
			-12.50		129.54E-03		#953
			-10.00		128.69E-03		#917
			-7.50		129.72E-03		#881
			-5.00		129.06E-03		#845
			-2.50		129.65E-03		#809
			0.00		128.59E-03		#773
			2.50		129.35E-03		#737
			5.00		128.24E-03		#701
			7.50		129.72E-03		#665
			10.00		128.32E-03		#629
			12.50		129.78E-03		#593
			15.00		129.57E-03		#557
			17.50		129.68E-03		#521
			20.00		130.18E-03		#485
			22.50		130.21E-03		#449
			25.00		130.31E-03		#413
			27.50		130.36E-03		#377
			30.00		130.45E-03		#341
			32.50		131.16E-03		#305
			35.00		131.47E-03		#270
			40.00		133.05E-03		#239
			45.00		130.95E-03		#208
			50.00		131.31E-03		#177
			55.00		109.97E-03		#146
			60.00		35.924E-03		#115
			65.00		3.5128E-03		#84
			70.00		1.5852E-03		#53
			75.00		-94.163E-06		#22
		END_DATA
	END_SCAN  11
	BEGIN_SCAN  12
		TASK_NAME=DOSE
		GROUP_NAME=LR_72.0
		PROGRAM=BeamAdjust 2.3.0.25
		COMMENT=G000, E221_c-dhex3.6_4
		MEAS_DATE=08-Jun-2024 22:02:15
		LINAC=HIT
		MODALITY=P
		INPLANE_AXIS_DIR=TARGET_GUN
		CROSSPLANE_AXIS_DIR=LEFT_RIGHT
		DEPTH_AXIS_DIR=UP_DOWN
		ENERGY=0.00
		SSD=0.00
		FIELD_INPLANE=50.00
		FIELD_CROSSPLANE=50.00
		FIELD_TYPE=RECTANGULAR
		GANTRY=0.00
		GANTRY_UPRIGHT_POSITION=0
		GANTRY_ROTATION=CW
		COLL_ANGLE=90.00
		SCAN_DEVICE=OCTAVIUS_1600_XDR
		ELECTROMETER=DETECTOR_INTERFACE
		ELECTROMETER_SN=5987
		DETECTOR=OCTAVIUS_1600_XDR
		DETECTOR_SN=191760
		FILTER=FF
		SCAN_CURVETYPE=CROSSPLANE_PROFILE
		SCAN_DEPTH=0.00
		SCAN_OFFAXIS_INPLANE=-27.50
		SCAN_ANGLE=0.00
		SCAN_DIAGONAL=NOT_DIAGONAL
		MEAS_PRESET=TIME_PRESET
		MEAS_TIME=72.000
		MEAS_UNIT=GY
		PRESSURE=995.30
		TEMPERATURE=19.10
		NORM_TEMPERATURE=20.00
		CORRECTION_FACTOR=1.1270
		CALIBRATION_FILE=C:\Users\Public\Documents\PTW\Common Files\Calibration Files\230554201_OCTAVIUS1600XDR_191760.cal
		CORRECTIONS=AIR_DENSITY_CORR;FACTOR_CORR;
		BEGIN_DATA
			-32.50		129.91E-03		#1240
			-30.00		129.59E-03		#1204
			-27.50		128.49E-03		#1168
			-25.00		129.25E-03		#1132
			-22.50		129.15E-03		#1096
			-20.00		129.17E-03		#1060
			-17.50		128.27E-03		#1024
			-15.00		129.89E-03		#988
			-12.50		129.16E-03		#952
			-10.00		129.50E-03		#916
			-7.50		128.73E-03		#880
			-5.00		128.76E-03		#844
			-2.50		128.51E-03		#808
			0.00		128.69E-03		#772
			2.50		129.02E-03		#736
			5.00		128.43E-03		#700
			7.50		129.33E-03		#664
			10.00		129.32E-03		#628
			12.50		129.07E-03		#592
			15.00		128.73E-03		#556
			17.50		129.10E-03		#520
			20.00		129.45E-03		#484
			22.50		129.12E-03		#448
			25.00		129.74E-03		#412
			27.50		129.65E-03		#376
			30.00		130.03E-03		#340
			32.50		130.12E-03		#304
		END_DATA
	END_SCAN  12
	BEGIN_SCAN  13
		TASK_NAME=DOSE
		GROUP_NAME=LR_72.0
		PROGRAM=BeamAdjust 2.3.0.25
		COMMENT=G000, E221_c-dhex3.6_4
		MEAS_DATE=08-Jun-2024 22:02:15
		LINAC=HIT
		MODALITY=P
		INPLANE_AXIS_DIR=TARGET_GUN
		CROSSPLANE_AXIS_DIR=LEFT_RIGHT
		DEPTH_AXIS_DIR=UP_DOWN
		ENERGY=0.00
		SSD=0.00
		FIELD_INPLANE=50.00
		FIELD_CROSSPLANE=50.00
		FIELD_TYPE=RECTANGULAR
		GANTRY=0.00
		GANTRY_UPRIGHT_POSITION=0
		GANTRY_ROTATION=CW
		COLL_ANGLE=90.00
		SCAN_DEVICE=OCTAVIUS_1600_XDR
		ELECTROMETER=DETECTOR_INTERFACE
		ELECTROMETER_SN=5987
		DETECTOR=OCTAVIUS_1600_XDR
		DETECTOR_SN=191760
		FILTER=FF
		SCAN_CURVETYPE=CROSSPLANE_PROFILE
		SCAN_DEPTH=0.00
		SCAN_OFFAXIS_INPLANE=-25.00
		SCAN_ANGLE=0.00
		SCAN_DIAGONAL=NOT_DIAGONAL
		MEAS_PRESET=TIME_PRESET
		MEAS_TIME=72.000
		MEAS_UNIT=GY
		PRESSURE=995.30
		TEMPERATURE=19.10
		NORM_TEMPERATURE=20.00
		CORRECTION_FACTOR=1.1270
		CALIBRATION_FILE=C:\Users\Public\Documents\PTW\Common Files\Calibration Files\230554201_OCTAVIUS1600XDR_191760.cal
		CORRECTIONS=AIR_DENSITY_CORR;FACTOR_CORR;
		BEGIN_DATA
			-75.00		557.70E-06		#1511
			-70.00		2.1314E-03		#1480
			-65.00		15.210E-03		#1449
			-60.00		83.685E-03		#1418
			-55.00		127.35E-03		#1387
			-50.00		131.44E-03		#1356
			-45.00		131.42E-03		#1325
			-40.00		131.21E-03		#1294
			-35.00		131.03E-03		#1263
			-32.50		130.08E-03		#1239
			-30.00		129.84E-03		#1203
			-27.50		128.83E-03		#1167
			-25.00		128.80E-03		#1131
			-22.50		128.81E-03		#1095
			-20.00		128.80E-03		#1059
			-17.50		129.57E-03		#1023
			-15.00		128.89E-03		#987
			-12.50		129.87E-03		#951
			-10.00		128.89E-03		#915
			-7.50		128.94E-03		#879
			-5.00		129.35E-03		#843
			-2.50		128.37E-03		#807
			0.00		128.02E-03		#771
			2.50		129.07E-03		#735
			5.00		128.36E-03		#699
			7.50		128.32E-03		#663
			10.00		128.50E-03		#627
			12.50		129.00E-03		#591
			15.00		129.27E-03		#555
			17.50		129.16E-03		#519
			20.00		130.05E-03		#483
			22.50		129.66E-03		#447
			25.00		129.72E-03		#411
			27.50		128.82E-03		#375
			30.00		130.35E-03		#339
			32.50		130.35E-03		#303
			35.00		131.38E-03		#269
			40.00		131.59E-03		#238
			45.00		131.74E-03		#207
			50.00		130.07E-03		#176
			55.00		110.03E-03		#145
			60.00		36.215E-03		#114
			65.00		4.1042E-03		#83
			70.00		773.12E-06		#52
			75.00		641.43E-06		#21
		END_DATA
	END_SCAN  13
	BEGIN_SCAN  14
		TASK_NAME=DOSE
		GROUP_NAME=LR_72.0
		PROGRAM=BeamAdjust 2.3.0.25
		COMMENT=G000, E221_c-dhex3.6_4
		MEAS_DATE=08-Jun-2024 22:02:15
		LINAC=HIT
		MODALITY=P
		INPLANE_AXIS_DIR=TARGET_GUN
		CROSSPLANE_AXIS_DIR=LEFT_RIGHT
		DEPTH_AXIS_DIR=UP_DOWN
		ENERGY=0.00
		SSD=0.00
		FIELD_INPLANE=50.00
		FIELD_CROSSPLANE=50.00
		FIELD_TYPE=RECTANGULAR
		GANTRY=0.00
		GANTRY_UPRIGHT_POSITION=0
		GANTRY_ROTATION=CW
		COLL_ANGLE=90.00
		SCAN_DEVICE=OCTAVIUS_1600_XDR
		ELECTROMETER=DETECTOR_INTERFACE
		ELECTROMETER_SN=5987
		DETECTOR=OCTAVIUS_1600_XDR
		DETECTOR_SN=191760
		FILTER=FF
		SCAN_CURVETYPE=CROSSPLANE_PROFILE
		SCAN_DEPTH=0.00
		SCAN_OFFAXIS_INPLANE=-22.50
		SCAN_ANGLE=0.00
		SCAN_DIAGONAL=NOT_DIAGONAL
		MEAS_PRESET=TIME_PRESET
		MEAS_TIME=72.000
		MEAS_UNIT=GY
		PRESSURE=995.30
		TEMPERATURE=19.10
		NORM_TEMPERATURE=20.00
		CORRECTION_FACTOR=1.1270
		CALIBRATION_FILE=C:\Users\Public\Documents\PTW\Common Files\Calibration Files\230554201_OCTAVIUS1600XDR_191760.cal
		CORRECTIONS=AIR_DENSITY_CORR;FACTOR_CORR;
		BEGIN_DATA
			-32.50		130.14E-03		#1238
			-30.00		130.40E-03		#1202
			-27.50		129.20E-03		#1166
			-25.00		129.23E-03		#1130
			-22.50		129.16E-03		#1094
			-20.00		130.03E-03		#1058
			-17.50		129.87E-03		#1022
			-15.00		129.22E-03		#986
			-12.50		129.24E-03		#950
			-10.00		129.70E-03		#914
			-7.50		128.90E-03		#878
			-5.00		128.47E-03		#842
			-2.50		128.70E-03		#806
			0.00		128.95E-03		#770
			2.50		129.36E-03		#734
			5.00		128.42E-03		#698
			7.50		129.01E-03		#662
			10.00		127.80E-03		#626
			12.50		129.01E-03		#590
			15.00		128.89E-03		#554
			17.50		128.87E-03		#518
			20.00		129.43E-03		#482
			22.50		129.79E-03		#446
			25.00		129.56E-03		#410
			27.50		129.78E-03		#374
			30.00		130.27E-03		#338
			32.50		130.14E-03		#302
		END_DATA
	END_SCAN  14
	BEGIN_SCAN  15
		TASK_NAME=DOSE
		GROUP_NAME=LR_72.0
		PROGRAM=BeamAdjust 2.3.0.25
		COMMENT=G000, E221_c-dhex3.6_4
		MEAS_DATE=08-Jun-2024 22:02:15
		LINAC=HIT
		MODALITY=P
		INPLANE_AXIS_DIR=TARGET_GUN
		CROSSPLANE_AXIS_DIR=LEFT_RIGHT
		DEPTH_AXIS_DIR=UP_DOWN
		ENERGY=0.00
		SSD=0.00
		FIELD_INPLANE=50.00
		FIELD_CROSSPLANE=50.00
		FIELD_TYPE=RECTANGULAR
		GANTRY=0.00
		GANTRY_UPRIGHT_POSITION=0
		GANTRY_ROTATION=CW
		COLL_ANGLE=90.00
		SCAN_DEVICE=OCTAVIUS_1600_XDR
		ELECTROMETER=DETECTOR_INTERFACE
		ELECTROMETER_SN=5987
		DETECTOR=OCTAVIUS_1600_XDR
		DETECTOR_SN=191760
		FILTER=FF
		SCAN_CURVETYPE=CROSSPLANE_PROFILE
		SCAN_DEPTH=0.00
		SCAN_OFFAXIS_INPLANE=-20.00
		SCAN_ANGLE=0.00
		SCAN_DIAGONAL=NOT_DIAGONAL
		MEAS_PRESET=TIME_PRESET
		MEAS_TIME=72.000
		MEAS_UNIT=GY
		PRESSURE=995.30
		TEMPERATURE=19.10
		NORM_TEMPERATURE=20.00
		CORRECTION_FACTOR=1.1270
		CALIBRATION_FILE=C:\Users\Public\Documents\PTW\Common Files\Calibration Files\230554201_OCTAVIUS1600XDR_191760.cal
		CORRECTIONS=AIR_DENSITY_CORR;FACTOR_CORR;
		BEGIN_DATA
			-75.00		979.43E-06		#1510
			-70.00		2.1904E-03		#1479
			-65.00		15.136E-03		#1448
			-60.00		82.990E-03		#1417
			-55.00		127.15E-03		#1386
			-50.00		129.87E-03		#1355
			-45.00		130.72E-03		#1324
			-40.00		131.35E-03		#1293
			-35.00		130.50E-03		#1262
			-32.50		129.16E-03		#1237
			-30.00		129.41E-03		#1201
			-27.50		128.31E-03		#1165
			-25.00		129.72E-03		#1129
			-22.50		128.97E-03		#1093
			-20.00		127.77E-03		#1057
			-17.50		128.21E-03		#1021
			-15.00		129.48E-03		#985
			-12.50		129.58E-03		#949
			-10.00		127.95E-03		#913
			-7.50		128.47E-03		#877
			-5.00		127.75E-03		#841
			-2.50		128.07E-03		#805
			0.00		128.33E-03		#769
			2.50		127.88E-03		#733
			5.00		127.64E-03		#697
			7.50		127.78E-03		#661
			10.00		128.59E-03		#625
			12.50		128.71E-03		#589
			15.00		128.85E-03		#553
			17.50		129.03E-03		#517
			20.00		129.52E-03		#481
			22.50		129.21E-03		#445
			25.00		129.45E-03		#409
			27.50		128.81E-03		#373
			30.00		129.89E-03		#337
			32.50		130.24E-03		#301
			35.00		131.02E-03		#268
			40.00		131.75E-03		#237
			45.00		131.56E-03		#206
			50.00		130.24E-03		#175
			55.00		109.36E-03		#144
			60.00		36.843E-03		#113
			65.00		3.6915E-03		#82
			70.00		955.96E-06		#51
			75.00		570.71E-06		#20
		END_DATA
	END_SCAN  15
	BEGIN_SCAN  16
		TASK_NAME=DOSE
		GROUP_NAME=LR_72.0
		PROGRAM=BeamAdjust 2.3.0.25
