BEGIN_SCAN_DATA
	FORMAT=CC-Export V1.9                  
	FILE_CREATION_DATE=08-Jun-2024 21:46:45
	LAST_MODIFIED=08-Jun-2024 21:46:45
	BEGIN_SCAN  1
		TASK_NAME=DOSE
		GROUP_NAME=LR_24.8
		PROGRAM=BeamAdjust 2.3.0.25
		COMMENT=G000, E221_c-dhex3.6_4
		MEAS_DATE=08-Jun-2024 21:46:39
		LINAC=HIT
		MODALITY=P
		INPLANE_AXIS_DIR=TARGET_GUN
		CROSSPLANE_AXIS_DIR=LEFT_RIGHT
		DEPTH_AXIS_DIR=UP_DOWN
		ENERGY=0.00
		SSD=0.00
		FIELD_INPLANE=50.00
		FIELD_CROSSPLANE=50.00
		FIELD_TYPE=RECTANGULAR
		GANTRY=0.00
		GANTRY_UPRIGHT_POSITION=0
		GANTRY_ROTATION=CW
		COLL_ANGLE=90.00
		SCAN_DEVICE=OCTAVIUS_1600_XDR
		ELECTROMETER=DETECTOR_INTERFACE
		ELECTROMETER_SN=5987
		DETECTOR=OCTAVIUS_1600_XDR
		DETECTOR_SN=191760
		FILTER=FF
		SCAN_CURVETYPE=CROSSPLANE_PROFILE
		SCAN_DEPTH=0.00
		SCAN_OFFAXIS_INPLANE=-75.00
		SCAN_ANGLE=0.00
		SCAN_DIAGONAL=NOT_DIAGONAL
		MEAS_PRESET=TIME_PRESET
		MEAS_TIME=24.800
		MEAS_UNIT=GY
		PRESSURE=995.30
		TEMPERATURE=19.10
		NORM_TEMPERATURE=20.00
		CORRECTION_FACTOR=1.1270
		CALIBRATION_FILE=C:\Users\Public\Documents\PTW\Common Files\Calibration Files\230554201_OCTAVIUS1600XDR_191760.cal
		CORRECTIONS=AIR_DENSITY_CORR;FACTOR_CORR;
		BEGIN_DATA
			-75.00		103.13E-06		#1521
			-70.00		11.690E-06		#1490
			-65.00		131.57E-06		#1459
			-60.00		-48.540E-06		#1428
			-55.00		-20.239E-06		#1397
			-50.00		55.569E-06		#1366
			-45.00		92.619E-06		#1335
			-40.00		2.1346E-06		#1304
			-35.00		-24.136E-06		#1273
			-30.00		96.349E-06		#1215
			-25.00		226.98E-06		#1143
			-20.00		174.03E-06		#1071
			-15.00		243.32E-06		#999
			-10.00		104.67E-06		#927
			-5.00		101.32E-06		#855
			0.00		-49.705E-06		#783
			5.00		181.84E-06		#711
			10.00		-14.774E-06		#639
			15.00		179.08E-06		#567
			20.00		211.25E-06		#495
			25.00		133.61E-06		#423
			30.00		-209.40E-06		#351
			35.00		261.34E-06		#279
			40.00		268.75E-06		#248
			45.00		119.46E-06		#217
			50.00		-42.161E-06		#186
			55.00		213.54E-06		#155
			60.00		-22.943E-06		#124
			65.00		55.197E-06		#93
			70.00		234.79E-06		#62
			75.00		-164.30E-06		#31
		END_DATA
	END_SCAN  1
	BEGIN_SCAN  2
		TASK_NAME=DOSE
		GROUP_NAME=LR_24.8
		PROGRAM=BeamAdjust 2.3.0.25
		COMMENT=G000, E221_c-dhex3.6_4
		MEAS_DATE=08-Jun-2024 21:46:39
		LINAC=HIT
		MODALITY=P
		INPLANE_AXIS_DIR=TARGET_GUN
		CROSSPLANE_AXIS_DIR=LEFT_RIGHT
		DEPTH_AXIS_DIR=UP_DOWN
		ENERGY=0.00
		SSD=0.00
		FIELD_INPLANE=50.00
		FIELD_CROSSPLANE=50.00
		FIELD_TYPE=RECTANGULAR
		GANTRY=0.00
		GANTRY_UPRIGHT_POSITION=0
		GANTRY_ROTATION=CW
		COLL_ANGLE=90.00
		SCAN_DEVICE=OCTAVIUS_1600_XDR
		ELECTROMETER=DETECTOR_INTERFACE
		ELECTROMETER_SN=5987
		DETECTOR=OCTAVIUS_1600_XDR
		DETECTOR_SN=191760
		FILTER=FF
		SCAN_CURVETYPE=CROSSPLANE_PROFILE
		SCAN_DEPTH=0.00
		SCAN_OFFAXIS_INPLANE=-70.00
		SCAN_ANGLE=0.00
		SCAN_DIAGONAL=NOT_DIAGONAL
		MEAS_PRESET=TIME_PRESET
		MEAS_TIME=24.800
		MEAS_UNIT=GY
		PRESSURE=995.30
		TEMPERATURE=19.10
		NORM_TEMPERATURE=20.00
		CORRECTION_FACTOR=1.1270
		CALIBRATION_FILE=C:\Users\Public\Documents\PTW\Common Files\Calibration Files\230554201_OCTAVIUS1600XDR_191760.cal
		CORRECTIONS=AIR_DENSITY_CORR;FACTOR_CORR;
		BEGIN_DATA
			-75.00		266.88E-06		#1520
			-70.00		100.97E-06		#1489
			-65.00		192.19E-06		#1458
			-60.00		24.186E-06		#1427
			-55.00		19.191E-06		#1396
			-50.00		102.07E-06		#1365
			-45.00		154.16E-06		#1334
			-40.00		-29.822E-06		#1303
			-35.00		210.86E-06		#1272
			-30.00		86.519E-06		#1214
			-25.00		11.433E-06		#1142
			-20.00		25.749E-06		#1070
			-15.00		21.307E-06		#998
			-10.00		162.79E-06		#926
			-5.00		247.76E-06		#854
			0.00		264.77E-06		#782
			5.00		145.91E-06		#710
			10.00		19.950E-06		#638
			15.00		85.301E-06		#566
			20.00		-178.87E-06		#494
			25.00		331.13E-06		#422
			30.00		168.19E-06		#350
			35.00		128.34E-06		#278
			40.00		-42.373E-06		#247
			45.00		-51.201E-06		#216
			50.00		117.38E-06		#185
			55.00		106.86E-06		#154
			60.00		277.67E-06		#123
			65.00		32.257E-06		#92
			70.00		55.804E-06		#61
			75.00		62.113E-06		#30
		END_DATA
	END_SCAN  2
	BEGIN_SCAN  3
		TASK_NAME=DOSE
		GROUP_NAME=LR_24.8
		PROGRAM=BeamAdjust 2.3.0.25
		COMMENT=G000, E221_c-dhex3.6_4
		MEAS_DATE=08-Jun-2024 21:46:39
		LINAC=HIT
		MODALITY=P
		INPLANE_AXIS_DIR=TARGET_GUN
		CROSSPLANE_AXIS_DIR=LEFT_RIGHT
		DEPTH_AXIS_DIR=UP_DOWN
		ENERGY=0.00
		SSD=0.00
		FIELD_INPLANE=50.00
		FIELD_CROSSPLANE=50.00
		FIELD_TYPE=RECTANGULAR
		GANTRY=0.00
		GANTRY_UPRIGHT_POSITION=0
		GANTRY_ROTATION=CW
		COLL_ANGLE=90.00
		SCAN_DEVICE=OCTAVIUS_1600_XDR
		ELECTROMETER=DETECTOR_INTERFACE
		ELECTROMETER_SN=5987
		DETECTOR=OCTAVIUS_1600_XDR
		DETECTOR_SN=191760
		FILTER=FF
		SCAN_CURVETYPE=CROSSPLANE_PROFILE
		SCAN_DEPTH=0.00
		SCAN_OFFAXIS_INPLANE=-65.00
		SCAN_ANGLE=0.00
		SCAN_DIAGONAL=NOT_DIAGONAL
		MEAS_PRESET=TIME_PRESET
		MEAS_TIME=24.800
		MEAS_UNIT=GY
		PRESSURE=995.30
		TEMPERATURE=19.10
		NORM_TEMPERATURE=20.00
		CORRECTION_FACTOR=1.1270
		CALIBRATION_FILE=C:\Users\Public\Documents\PTW\Common Files\Calibration Files\230554201_OCTAVIUS1600XDR_191760.cal
		CORRECTIONS=AIR_DENSITY_CORR;FACTOR_CORR;
		BEGIN_DATA
			-75.00		-135.12E-06		#1519
			-70.00		-52.735E-06		#1488
			-65.00		-55.522E-06		#1457
			-60.00		61.749E-06		#1426
			-55.00		138.74E-06		#1395
			-50.00		309.56E-06		#1364
			-45.00		62.065E-06		#1333
			-40.00		153.56E-06		#1302
			-35.00		266.23E-06		#1271
			-30.00		178.71E-06		#1213
			-25.00		141.11E-06		#1141
			-20.00		24.154E-06		#1069
			-15.00		111.79E-06		#997
			-10.00		276.74E-06		#925
			-5.00		181.24E-06		#853
			0.00		202.53E-06		#781
			5.00		167.23E-06		#709
			10.00		173.60E-06		#637
			15.00		85.651E-06		#565
			20.00		41.589E-06		#493
			25.00		240.50E-06		#421
			30.00		84.123E-06		#349
			35.00		185.23E-06		#277
			40.00		12.902E-06		#246
			45.00		282.99E-06		#215
			50.00		-43.402E-06		#184
			55.00		129.56E-06		#153
			60.00		12.810E-06		#122
			65.00		25.864E-06		#91
			70.00		19.618E-06		#60
			75.00		120.36E-06		#29
		END_DATA
	END_SCAN  3
	BEGIN_SCAN  4
		TASK_NAME=DOSE
		GROUP_NAME=LR_24.8
		PROGRAM=BeamAdjust 2.3.0.25
		COMMENT=G000, E221_c-dhex3.6_4
		MEAS_DATE=08-Jun-2024 21:46:39
		LINAC=HIT
		MODALITY=P
		INPLANE_AXIS_DIR=TARGET_GUN
		CROSSPLANE_AXIS_DIR=LEFT_RIGHT
		DEPTH_AXIS_DIR=UP_DOWN
		ENERGY=0.00
		SSD=0.00
		FIELD_INPLANE=50.00
		FIELD_CROSSPLANE=50.00
		FIELD_TYPE=RECTANGULAR
		GANTRY=0.00
		GANTRY_UPRIGHT_POSITION=0
		GANTRY_ROTATION=CW
		COLL_ANGLE=90.00
		SCAN_DEVICE=OCTAVIUS_1600_XDR
		ELECTROMETER=DETECTOR_INTERFACE
		ELECTROMETER_SN=5987
		DETECTOR=OCTAVIUS_1600_XDR
		DETECTOR_SN=191760
		FILTER=FF
		SCAN_CURVETYPE=CROSSPLANE_PROFILE
		SCAN_DEPTH=0.00
		SCAN_OFFAXIS_INPLANE=-60.00
		SCAN_ANGLE=0.00
		SCAN_DIAGONAL=NOT_DIAGONAL
		MEAS_PRESET=TIME_PRESET
		MEAS_TIME=24.800
		MEAS_UNIT=GY
		PRESSURE=995.30
		TEMPERATURE=19.10
		NORM_TEMPERATURE=20.00
		CORRECTION_FACTOR=1.1270
		CALIBRATION_FILE=C:\Users\Public\Documents\PTW\Common Files\Calibration Files\230554201_OCTAVIUS1600XDR_191760.cal
		CORRECTIONS=AIR_DENSITY_CORR;FACTOR_CORR;
		BEGIN_DATA
			-75.00		133.09E-06		#1518
			-70.00		103.93E-06		#1487
			-65.00		220.09E-06		#1456
			-60.00		114.33E-06		#1425
			-55.00		106.76E-06		#1394
			-50.00		85.342E-06		#1363
			-45.00		124.77E-06		#1332
			-40.00		294.11E-06		#1301
			-35.00		200.88E-06		#1270
			-30.00		172.66E-06		#1212
			-25.00		458.38E-06		#1140
			-20.00		499.40E-06		#1068
			-15.00		357.23E-06		#996
			-10.00		568.93E-06		#924
			-5.00		551.77E-06		#852
			0.00		229.12E-06		#780
			5.00		538.87E-06		#708
			10.00		375.54E-06		#636
			15.00		658.93E-06		#564
			20.00		324.86E-06		#492
			25.00		220.22E-06		#420
			30.00		327.25E-06		#348
			35.00		53.599E-06		#276
			40.00		343.86E-06		#245
			45.00		163.17E-06		#214
			50.00		194.36E-06		#183
			55.00		361.51E-06		#152
			60.00		110.92E-06		#121
			65.00		140.18E-06		#90
			70.00		-25.398E-06		#59
			75.00		110.83E-06		#28
		END_DATA
	END_SCAN  4
	BEGIN_SCAN  5
		TASK_NAME=DOSE
		GROUP_NAME=LR_24.8
		PROGRAM=BeamAdjust 2.3.0.25
		COMMENT=G000, E221_c-dhex3.6_4
		MEAS_DATE=08-Jun-2024 21:46:39
		LINAC=HIT
		MODALITY=P
		INPLANE_AXIS_DIR=TARGET_GUN
		CROSSPLANE_AXIS_DIR=LEFT_RIGHT
		DEPTH_AXIS_DIR=UP_DOWN
		ENERGY=0.00
		SSD=0.00
		FIELD_INPLANE=50.00
		FIELD_CROSSPLANE=50.00
		FIELD_TYPE=RECTANGULAR
		GANTRY=0.00
		GANTRY_UPRIGHT_POSITION=0
		GANTRY_ROTATION=CW
		COLL_ANGLE=90.00
		SCAN_DEVICE=OCTAVIUS_1600_XDR
		ELECTROMETER=DETECTOR_INTERFACE
		ELECTROMETER_SN=5987
		DETECTOR=OCTAVIUS_1600_XDR
		DETECTOR_SN=191760
		FILTER=FF
		SCAN_CURVETYPE=CROSSPLANE_PROFILE
		SCAN_DEPTH=0.00
		SCAN_OFFAXIS_INPLANE=-55.00
		SCAN_ANGLE=0.00
		SCAN_DIAGONAL=NOT_DIAGONAL
		MEAS_PRESET=TIME_PRESET
		MEAS_TIME=24.800
		MEAS_UNIT=GY
		PRESSURE=995.30
		TEMPERATURE=19.10
		NORM_TEMPERATURE=20.00
		CORRECTION_FACTOR=1.1270
		CALIBRATION_FILE=C:\Users\Public\Documents\PTW\Common Files\Calibration Files\230554201_OCTAVIUS1600XDR_191760.cal
		CORRECTIONS=AIR_DENSITY_CORR;FACTOR_CORR;
		BEGIN_DATA
			-75.00		-56.019E-06		#1517
			-70.00		151.10E-06		#1486
			-65.00		-25.166E-06		#1455
			-60.00		126.94E-06		#1424
			-55.00		210.86E-06		#1393
			-50.00		198.61E-06		#1362
			-45.00		129.09E-06		#1331
			-40.00		259.70E-06		#1300
			-35.00		433.19E-06		#1269
			-30.00		580.92E-06		#1211
			-25.00		756.83E-06		#1139
			-20.00		636.22E-06		#1067
			-15.00		744.56E-06		#995
			-10.00		633.16E-06		#923
			-5.00		584.19E-06		#851
			0.00		625.98E-06		#779
			5.00		694.14E-06		#707
			10.00		857.07E-06		#635
			15.00		612.89E-06		#563
			20.00		851.80E-06		#491
			25.00		558.73E-06		#419
			30.00		485.64E-06		#347
			35.00		405.17E-06		#275
			40.00		24.357E-06		#244
			45.00		545.13E-06		#213
			50.00		202.37E-06		#182
			55.00		-1.0930E-06		#151
			60.00		25.613E-06		#120
			65.00		125.62E-06		#89
			70.00		-10.840E-06		#58
			75.00		-213.74E-06		#27
		END_DATA
	END_SCAN  5
	BEGIN_SCAN  6
		TASK_NAME=DOSE
		GROUP_NAME=LR_24.8
		PROGRAM=BeamAdjust 2.3.0.25
		COMMENT=G000, E221_c-dhex3.6_4
		MEAS_DATE=08-Jun-2024 21:46:39
		LINAC=HIT
		MODALITY=P
		INPLANE_AXIS_DIR=TARGET_GUN
		CROSSPLANE_AXIS_DIR=LEFT_RIGHT
		DEPTH_AXIS_DIR=UP_DOWN
		ENERGY=0.00
		SSD=0.00
		FIELD_INPLANE=50.00
		FIELD_CROSSPLANE=50.00
		FIELD_TYPE=RECTANGULAR
		GANTRY=0.00
		GANTRY_UPRIGHT_POSITION=0
		GANTRY_ROTATION=CW
		COLL_ANGLE=90.00
		SCAN_DEVICE=OCTAVIUS_1600_XDR
		ELECTROMETER=DETECTOR_INTERFACE
		ELECTROMETER_SN=5987
		DETECTOR=OCTAVIUS_1600_XDR
		DETECTOR_SN=191760
		FILTER=FF
		SCAN_CURVETYPE=CROSSPLANE_PROFILE
		SCAN_DEPTH=0.00
		SCAN_OFFAXIS_INPLANE=-50.00
		SCAN_ANGLE=0.00
		SCAN_DIAGONAL=NOT_DIAGONAL
		MEAS_PRESET=TIME_PRESET
		MEAS_TIME=24.800
		MEAS_UNIT=GY
		PRESSURE=995.30
		TEMPERATURE=19.10
		NORM_TEMPERATURE=20.00
		CORRECTION_FACTOR=1.1270
		CALIBRATION_FILE=C:\Users\Public\Documents\PTW\Common Files\Calibration Files\230554201_OCTAVIUS1600XDR_191760.cal
		CORRECTIONS=AIR_DENSITY_CORR;FACTOR_CORR;
		BEGIN_DATA
			-75.00		-5.8721E-06		#1516
			-70.00		84.576E-06		#1485
			-65.00		-83.631E-06		#1454
			-60.00		204.60E-06		#1423
			-55.00		167.59E-06		#1392
			-50.00		291.37E-06		#1361
			-45.00		528.23E-06		#1330
			-40.00		867.80E-06		#1299
			-35.00		1.1055E-03		#1268
			-30.00		1.5420E-03		#1210
			-25.00		1.4540E-03		#1138
			-20.00		1.6249E-03		#1066
			-15.00		1.7205E-03		#994
			-10.00		1.6730E-03		#922
			-5.00		1.8886E-03		#850
			0.00		1.8514E-03		#778
			5.00		1.8732E-03		#706
			10.00		1.9135E-03		#634
			15.00		1.6577E-03		#562
			20.00		1.7841E-03		#490
			25.00		1.4562E-03		#418
			30.00		1.3246E-03		#346
			35.00		907.88E-06		#274
			40.00		681.92E-06		#243
			45.00		303.41E-06		#212
			50.00		117.41E-06		#181
			55.00		170.29E-06		#150
			60.00		100.68E-06		#119
			65.00		63.170E-06		#88
			70.00		111.27E-06		#57
			75.00		82.729E-06		#26
		END_DATA
	END_SCAN  6
	BEGIN_SCAN  7
		TASK_NAME=DOSE
		GROUP_NAME=LR_24.8
		PROGRAM=BeamAdjust 2.3.0.25
		COMMENT=G000, E221_c-dhex3.6_4
		MEAS_DATE=08-Jun-2024 21:46:39
		LINAC=HIT
		MODALITY=P
		INPLANE_AXIS_DIR=TARGET_GUN
		CROSSPLANE_AXIS_DIR=LEFT_RIGHT
		DEPTH_AXIS_DIR=UP_DOWN
		ENERGY=0.00
		SSD=0.00
		FIELD_INPLANE=50.00
		FIELD_CROSSPLANE=50.00
		FIELD_TYPE=RECTANGULAR
		GANTRY=0.00
		GANTRY_UPRIGHT_POSITION=0
		GANTRY_ROTATION=CW
		COLL_ANGLE=90.00
		SCAN_DEVICE=OCTAVIUS_1600_XDR
		ELECTROMETER=DETECTOR_INTERFACE
		ELECTROMETER_SN=5987
		DETECTOR=OCTAVIUS_1600_XDR
		DETECTOR_SN=191760
		FILTER=FF
		SCAN_CURVETYPE=CROSSPLANE_PROFILE
		SCAN_DEPTH=0.00
		SCAN_OFFAXIS_INPLANE=-45.00
		SCAN_ANGLE=0.00
		SCAN_DIAGONAL=NOT_DIAGONAL
		MEAS_PRESET=TIME_PRESET
		MEAS_TIME=24.800
		MEAS_UNIT=GY
		PRESSURE=995.30
		TEMPERATURE=19.10
		NORM_TEMPERATURE=20.00
		CORRECTION_FACTOR=1.1270
		CALIBRATION_FILE=C:\Users\Public\Documents\PTW\Common Files\Calibration Files\230554201_OCTAVIUS1600XDR_191760.cal
		CORRECTIONS=AIR_DENSITY_CORR;FACTOR_CORR;
		BEGIN_DATA
			-75.00		335.79E-06		#1515
			-70.00		-172.69E-06		#1484
			-65.00		33.863E-06		#1453
			-60.00		120.37E-06		#1422
			-55.00		383.78E-06		#1391
			-50.00		512.60E-06		#1360
			-45.00		1.1382E-03		#1329
			-40.00		1.9101E-03		#1298
			-35.00		3.3577E-03		#1267
			-30.00		4.6268E-03		#1209
			-25.00		5.2494E-03		#1137
			-20.00		5.4217E-03		#1065
			-15.00		5.6757E-03		#993
			-10.00		5.5130E-03		#921
			-5.00		5.5644E-03		#849
			0.00		5.7052E-03		#777
			5.00		5.6977E-03		#705
			10.00		5.4315E-03		#633
			15.00		5.4556E-03		#561
			20.00		5.3031E-03		#489
			25.00		5.0499E-03		#417
			30.00		4.2720E-03		#345
			35.00		2.8774E-03		#273
			40.00		1.7232E-03		#242
			45.00		996.89E-06		#211
			50.00		466.95E-06		#180
			55.00		37.759E-06		#149
			60.00		178.94E-06		#118
			65.00		334.30E-06		#87
			70.00		120.59E-06		#56
			75.00		97.711E-06		#25
		END_DATA
	END_SCAN  7
	BEGIN_SCAN  8
		TASK_NAME=DOSE
		GROUP_NAME=LR_24.8
		PROGRAM=BeamAdjust 2.3.0.25
		COMMENT=G000, E221_c-dhex3.6_4
		MEAS_DATE=08-Jun-2024 21:46:39
		LINAC=HIT
		MODALITY=P
		INPLANE_AXIS_DIR=TARGET_GUN
		CROSSPLANE_AXIS_DIR=LEFT_RIGHT
		DEPTH_AXIS_DIR=UP_DOWN
		ENERGY=0.00
		SSD=0.00
		FIELD_INPLANE=50.00
		FIELD_CROSSPLANE=50.00
		FIELD_TYPE=RECTANGULAR
		GANTRY=0.00
		GANTRY_UPRIGHT_POSITION=0
		GANTRY_ROTATION=CW
		COLL_ANGLE=90.00
		SCAN_DEVICE=OCTAVIUS_1600_XDR
		ELECTROMETER=DETECTOR_INTERFACE
		ELECTROMETER_SN=5987
		DETECTOR=OCTAVIUS_1600_XDR
		DETECTOR_SN=191760
		FILTER=FF
		SCAN_CURVETYPE=CROSSPLANE_PROFILE
		SCAN_DEPTH=0.00
		SCAN_OFFAXIS_INPLANE=-40.00
		SCAN_ANGLE=0.00
		SCAN_DIAGONAL=NOT_DIAGONAL
		MEAS_PRESET=TIME_PRESET
		MEAS_TIME=24.800
		MEAS_UNIT=GY
		PRESSURE=995.30
		TEMPERATURE=19.10
		NORM_TEMPERATURE=20.00
		CORRECTION_FACTOR=1.1270
		CALIBRATION_FILE=C:\Users\Public\Documents\PTW\Common Files\Calibration Files\230554201_OCTAVIUS1600XDR_191760.cal
		CORRECTIONS=AIR_DENSITY_CORR;FACTOR_CORR;
		BEGIN_DATA
			-75.00		37.020E-06		#1514
			-70.00		50.851E-06		#1483
			-65.00		140.07E-06		#1452
			-60.00		74.363E-06		#1421
			-55.00		578.18E-06		#1390
			-50.00		887.54E-06		#1359
			-45.00		2.3327E-03		#1328
			-40.00		5.6708E-03		#1297
			-35.00		10.730E-03		#1266
			-30.00		14.413E-03		#1208
			-25.00		16.099E-03		#1136
			-20.00		16.537E-03		#1064
			-15.00		16.771E-03		#992
			-10.00		16.728E-03		#920
			-5.00		16.921E-03		#848
			0.00		16.745E-03		#776
			5.00		16.886E-03		#704
			10.00		16.866E-03		#632
			15.00		16.697E-03		#560
			20.00		16.780E-03		#488
			25.00		16.007E-03		#416
			30.00		13.011E-03		#344
			35.00		8.8106E-03		#272
			40.00		4.0930E-03		#241
			45.00		1.5935E-03		#210
			50.00		362.77E-06		#179
			55.00		534.74E-06		#148
			60.00		123.51E-06		#117
			65.00		164.90E-06		#86
			70.00		10.573E-06		#55
			75.00		156.49E-06		#24
		END_DATA
	END_SCAN  8
	BEGIN_SCAN  9
		TASK_NAME=DOSE
		GROUP_NAME=LR_24.8
		PROGRAM=BeamAdjust 2.3.0.25
		COMMENT=G000, E221_c-dhex3.6_4
		MEAS_DATE=08-Jun-2024 21:46:39
		LINAC=HIT
		MODALITY=P
		INPLANE_AXIS_DIR=TARGET_GUN
		CROSSPLANE_AXIS_DIR=LEFT_RIGHT
		DEPTH_AXIS_DIR=UP_DOWN
		ENERGY=0.00
		SSD=0.00
		FIELD_INPLANE=50.00
		FIELD_CROSSPLANE=50.00
		FIELD_TYPE=RECTANGULAR
		GANTRY=0.00
		GANTRY_UPRIGHT_POSITION=0
		GANTRY_ROTATION=CW
		COLL_ANGLE=90.00
		SCAN_DEVICE=OCTAVIUS_1600_XDR
		ELECTROMETER=DETECTOR_INTERFACE
		ELECTROMETER_SN=5987
		DETECTOR=OCTAVIUS_1600_XDR
		DETECTOR_SN=191760
		FILTER=FF
		SCAN_CURVETYPE=CROSSPLANE_PROFILE
		SCAN_DEPTH=0.00
		SCAN_OFFAXIS_INPLANE=-35.00
		SCAN_ANGLE=0.00
		SCAN_DIAGONAL=NOT_DIAGONAL
		MEAS_PRESET=TIME_PRESET
		MEAS_TIME=24.800
		MEAS_UNIT=GY
		PRESSURE=995.30
		TEMPERATURE=19.10
		NORM_TEMPERATURE=20.00
		CORRECTION_FACTOR=1.1270
		CALIBRATION_FILE=C:\Users\Public\Documents\PTW\Common Files\Calibration Files\230554201_OCTAVIUS1600XDR_191760.cal
		CORRECTIONS=AIR_DENSITY_CORR;FACTOR_CORR;
		BEGIN_DATA
			-75.00		246.42E-06		#1513
			-70.00		-118.70E-06		#1482
			-65.00		278.71E-06		#1451
			-60.00		320.83E-06		#1420
			-55.00		533.08E-06		#1389
			-50.00		1.5592E-03		#1358
			-45.00		4.5763E-03		#1327
			-40.00		12.207E-03		#1296
			-35.00		23.316E-03		#1265
			-30.00		31.306E-03		#1207
			-25.00		34.439E-03		#1135
			-20.00		35.480E-03		#1063
			-15.00		35.758E-03		#991
			-10.00		35.871E-03		#919
			-5.00		36.140E-03		#847
			0.00		35.973E-03		#775
			5.00		35.701E-03		#703
			10.00		35.814E-03		#631
			15.00		35.435E-03		#559
			20.00		35.559E-03		#487
			25.00		33.595E-03		#415
			30.00		28.303E-03		#343
			35.00		18.030E-03		#271
			40.00		7.8256E-03		#240
			45.00		2.3748E-03		#209
			50.00		563.16E-06		#178
			55.00		262.61E-06		#147
			60.00		216.86E-06		#116
			65.00		17.224E-06		#85
			70.00		168.22E-06		#54
			75.00		-2.0671E-06		#23
		END_DATA
	END_SCAN  9
	BEGIN_SCAN  10
		TASK_NAME=DOSE
		GROUP_NAME=LR_24.8
		PROGRAM=BeamAdjust 2.3.0.25
		COMMENT=G000, E221_c-dhex3.6_4
		MEAS_DATE=08-Jun-2024 21:46:39
		LINAC=HIT
		MODALITY=P
		INPLANE_AXIS_DIR=TARGET_GUN
		CROSSPLANE_AXIS_DIR=LEFT_RIGHT
		DEPTH_AXIS_DIR=UP_DOWN
		ENERGY=0.00
		SSD=0.00
		FIELD_INPLANE=50.00
		FIELD_CROSSPLANE=50.00
		FIELD_TYPE=RECTANGULAR
		GANTRY=0.00
		GANTRY_UPRIGHT_POSITION=0
		GANTRY_ROTATION=CW
		COLL_ANGLE=90.00
		SCAN_DEVICE=OCTAVIUS_1600_XDR
		ELECTROMETER=DETECTOR_INTERFACE
		ELECTROMETER_SN=5987
		DETECTOR=OCTAVIUS_1600_XDR
		DETECTOR_SN=191760
		FILTER=FF
		SCAN_CURVETYPE=CROSSPLANE_PROFILE
		SCAN_DEPTH=0.00
		SCAN_OFFAXIS_INPLANE=-32.50
		SCAN_ANGLE=0.00
		SCAN_DIAGONAL=NOT_DIAGONAL
		MEAS_PRESET=TIME_PRESET
		MEAS_TIME=24.800
		MEAS_UNIT=GY
		PRESSURE=995.30
		TEMPERATURE=19.10
		NORM_TEMPERATURE=20.00
		CORRECTION_FACTOR=1.1270
		CALIBRATION_FILE=C:\Users\Public\Documents\PTW\Common Files\Calibration Files\230554201_OCTAVIUS1600XDR_191760.cal
		CORRECTIONS=AIR_DENSITY_CORR;FACTOR_CORR;
		BEGIN_DATA
			-32.50		35.304E-03		#1242
			-30.00		39.451E-03		#1206
			-27.50		42.040E-03		#1170
			-25.00		43.544E-03		#1134
			-22.50		43.917E-03		#1098
			-20.00		44.193E-03		#1062
			-17.50		44.562E-03		#1026
			-15.00		44.700E-03		#990
			-12.50		44.823E-03		#954
			-10.00		45.005E-03		#918
			-7.50		44.500E-03		#882
			-5.00		44.578E-03		#846
			-2.50		44.882E-03		#810
			0.00		44.805E-03		#774
			2.50		44.453E-03		#738
			5.00		44.788E-03		#702
			7.50		44.582E-03		#666
			10.00		44.839E-03		#630
			12.50		44.920E-03		#594
			15.00		44.459E-03		#558
			17.50		44.925E-03		#522
			20.00		44.071E-03		#486
			22.50		43.621E-03		#450
			25.00		41.955E-03		#414
			27.50		39.488E-03		#378
			30.00		35.107E-03		#342
			32.50		29.014E-03		#306
		END_DATA
	END_SCAN  10
	BEGIN_SCAN  11
		TASK_NAME=DOSE
		GROUP_NAME=LR_24.8
		PROGRAM=BeamAdjust 2.3.0.25
		COMMENT=G000, E221_c-dhex3.6_4
		MEAS_DATE=08-Jun-2024 21:46:39
		LINAC=HIT
		MODALITY=P
		INPLANE_AXIS_DIR=TARGET_GUN
		CROSSPLANE_AXIS_DIR=LEFT_RIGHT
		DEPTH_AXIS_DIR=UP_DOWN
		ENERGY=0.00
		SSD=0.00
		FIELD_INPLANE=50.00
		FIELD_CROSSPLANE=50.00
		FIELD_TYPE=RECTANGULAR
		GANTRY=0.00
		GANTRY_UPRIGHT_POSITION=0
		GANTRY_ROTATION=CW
		COLL_ANGLE=90.00
		SCAN_DEVICE=OCTAVIUS_1600_XDR
		ELECTROMETER=DETECTOR_INTERFACE
		ELECTROMETER_SN=5987
		DETECTOR=OCTAVIUS_1600_XDR
		DETECTOR_SN=191760
		FILTER=FF
		SCAN_CURVETYPE=CROSSPLANE_PROFILE
		SCAN_DEPTH=0.00
		SCAN_OFFAXIS_INPLANE=-30.00
		SCAN_ANGLE=0.00
		SCAN_DIAGONAL=NOT_DIAGONAL
		MEAS_PRESET=TIME_PRESET
		MEAS_TIME=24.800
		MEAS_UNIT=GY
		PRESSURE=995.30
		TEMPERATURE=19.10
		NORM_TEMPERATURE=20.00
		CORRECTION_FACTOR=1.1270
		CALIBRATION_FILE=C:\Users\Public\Documents\PTW\Common Files\Calibration Files\230554201_OCTAVIUS1600XDR_191760.cal
		CORRECTIONS=AIR_DENSITY_CORR;FACTOR_CORR;
		BEGIN_DATA
			-75.00		80.865E-06		#1512
			-70.00		113.37E-06		#1481
			-65.00		181.52E-06		#1450
			-60.00		267.21E-06		#1419
			-55.00		652.16E-06		#1388
			-50.00		1.8467E-03		#1357
			-45.00		6.4326E-03		#1326
			-40.00		18.199E-03		#1295
			-35.00		34.236E-03		#1264
			-32.50		40.846E-03		#1241
			-30.00		45.372E-03		#1205
			-27.50		47.844E-03		#1169
			-25.00		49.943E-03		#1133
			-22.50		50.363E-03		#1097
			-20.00		50.928E-03		#1061
			-17.50		51.295E-03		#1025
			-15.00		51.305E-03		#989
			-12.50		51.605E-03		#953
			-10.00		51.168E-03		#917
			-7.50		51.560E-03		#881
			-5.00		51.211E-03		#845
			-2.50		51.354E-03		#809
			0.00		51.177E-03		#773
			2.50		51.614E-03		#737
			5.00		51.354E-03		#701
			7.50		51.664E-03		#665
			10.00		51.071E-03		#629
			12.50		51.446E-03		#593
			15.00		51.234E-03		#557
			17.50		50.955E-03		#521
			20.00		50.729E-03		#485
			22.50		49.873E-03		#449
			25.00		48.317E-03		#413
			27.50		45.303E-03		#377
			30.00		39.906E-03		#341
			32.50		33.037E-03		#305
			35.00		25.015E-03		#270
			40.00		10.720E-03		#239
			45.00		3.0952E-03		#208
			50.00		1.0491E-03		#177
			55.00		367.59E-06		#146
			60.00		238.28E-06		#115
			65.00		2.5863E-06		#84
			70.00		147.67E-06		#53
			75.00		-200.13E-06		#22
		END_DATA
	END_SCAN  11
	BEGIN_SCAN  12
		TASK_NAME=DOSE
		GROUP_NAME=LR_24.8
		PROGRAM=BeamAdjust 2.3.0.25
		COMMENT=G000, E221_c-dhex3.6_4
		MEAS_DATE=08-Jun-2024 21:46:39
		LINAC=HIT
		MODALITY=P
		INPLANE_AXIS_DIR=TARGET_GUN
		CROSSPLANE_AXIS_DIR=LEFT_RIGHT
		DEPTH_AXIS_DIR=UP_DOWN
		ENERGY=0.00
		SSD=0.00
		FIELD_INPLANE=50.00
		FIELD_CROSSPLANE=50.00
		FIELD_TYPE=RECTANGULAR
		GANTRY=0.00
		GANTRY_UPRIGHT_POSITION=0
		GANTRY_ROTATION=CW
		COLL_ANGLE=90.00
		SCAN_DEVICE=OCTAVIUS_1600_XDR
		ELECTROMETER=DETECTOR_INTERFACE
		ELECTROMETER_SN=5987
		DETECTOR=OCTAVIUS_1600_XDR
		DETECTOR_SN=191760
		FILTER=FF
		SCAN_CURVETYPE=CROSSPLANE_PROFILE
		SCAN_DEPTH=0.00
		SCAN_OFFAXIS_INPLANE=-27.50
		SCAN_ANGLE=0.00
		SCAN_DIAGONAL=NOT_DIAGONAL
		MEAS_PRESET=TIME_PRESET
		MEAS_TIME=24.800
		MEAS_UNIT=GY
		PRESSURE=995.30
		TEMPERATURE=19.10
		NORM_TEMPERATURE=20.00
		CORRECTION_FACTOR=1.1270
		CALIBRATION_FILE=C:\Users\Public\Documents\PTW\Common Files\Calibration Files\230554201_OCTAVIUS1600XDR_191760.cal
		CORRECTIONS=AIR_DENSITY_CORR;FACTOR_CORR;
		BEGIN_DATA
			-32.50		44.099E-03		#1240
			-30.00		49.366E-03		#1204
			-27.50		52.139E-03		#1168
			-25.00		54.037E-03		#1132
			-22.50		55.152E-03		#1096
			-20.00		55.430E-03		#1060
			-17.50		55.015E-03		#1024
			-15.00		55.695E-03		#988
			-12.50		55.713E-03		#952
			-10.00		55.798E-03		#916
			-7.50		55.683E-03		#880
			-5.00		55.822E-03		#844
			-2.50		55.718E-03		#808
			0.00		55.764E-03		#772
			2.50		55.878E-03		#736
			5.00		56.019E-03		#700
			7.50		56.229E-03		#664
			10.00		55.680E-03		#628
			12.50		55.709E-03		#592
			15.00		55.238E-03		#556
			17.50		55.297E-03		#520
			20.00		55.115E-03		#484
			22.50		53.826E-03		#448
			25.00		52.232E-03		#412
			27.50		48.546E-03		#376
			30.00		43.144E-03		#340
			32.50		35.398E-03		#304
		END_DATA
	END_SCAN  12
	BEGIN_SCAN  13
		TASK_NAME=DOSE
		GROUP_NAME=LR_24.8
		PROGRAM=BeamAdjust 2.3.0.25
		COMMENT=G000, E221_c-dhex3.6_4
		MEAS_DATE=08-Jun-2024 21:46:39
		LINAC=HIT
		MODALITY=P
		INPLANE_AXIS_DIR=TARGET_GUN
		CROSSPLANE_AXIS_DIR=LEFT_RIGHT
		DEPTH_AXIS_DIR=UP_DOWN
		ENERGY=0.00
		SSD=0.00
		FIELD_INPLANE=50.00
		FIELD_CROSSPLANE=50.00
		FIELD_TYPE=RECTANGULAR
		GANTRY=0.00
		GANTRY_UPRIGHT_POSITION=0
		GANTRY_ROTATION=CW
		COLL_ANGLE=90.00
		SCAN_DEVICE=OCTAVIUS_1600_XDR
		ELECTROMETER=DETECTOR_INTERFACE
		ELECTROMETER_SN=5987
		DETECTOR=OCTAVIUS_1600_XDR
		DETECTOR_SN=191760
		FILTER=FF
		SCAN_CURVETYPE=CROSSPLANE_PROFILE
		SCAN_DEPTH=0.00
		SCAN_OFFAXIS_INPLANE=-25.00
		SCAN_ANGLE=0.00
		SCAN_DIAGONAL=NOT_DIAGONAL
		MEAS_PRESET=TIME_PRESET
		MEAS_TIME=24.800
		MEAS_UNIT=GY
		PRESSURE=995.30
		TEMPERATURE=19.10
		NORM_TEMPERATURE=20.00
		CORRECTION_FACTOR=1.1270
		CALIBRATION_FILE=C:\Users\Public\Documents\PTW\Common Files\Calibration Files\230554201_OCTAVIUS1600XDR_191760.cal
		CORRECTIONS=AIR_DENSITY_CORR;FACTOR_CORR;
		BEGIN_DATA
			-75.00		119.48E-06		#1511
			-70.00		206.13E-06		#1480
			-65.00		416.93E-06		#1449
			-60.00		400.40E-06		#1418
			-55.00		688.11E-06		#1387
			-50.00		2.5210E-03		#1356
			-45.00		7.6670E-03		#1325
			-40.00		20.812E-03		#1294
			-35.00		39.012E-03		#1263
			-32.50		46.391E-03		#1239
			-30.00		51.789E-03		#1203
			-27.50		54.493E-03		#1167
			-25.00		56.465E-03		#1131
			-22.50		57.400E-03		#1095
			-20.00		57.692E-03		#1059
			-17.50		58.436E-03		#1023
			-15.00		58.047E-03		#987
			-12.50		58.369E-03		#951
			-10.00		58.295E-03		#915
			-7.50		58.343E-03		#879
			-5.00		58.633E-03		#843
			-2.50		58.290E-03		#807
			0.00		58.077E-03		#771
			2.50		58.319E-03		#735
			5.00		58.241E-03		#699
			7.50		58.272E-03		#663
			10.00		58.215E-03		#627
			12.50		58.416E-03		#591
			15.00		58.235E-03		#555
			17.50		58.081E-03		#519
			20.00		57.698E-03		#483
			22.50		56.355E-03		#447
			25.00		54.396E-03		#411
			27.50		50.373E-03		#375
			30.00		45.187E-03		#339
			32.50		36.911E-03		#303
			35.00		28.245E-03		#269
			40.00		11.814E-03		#238
			45.00		4.2272E-03		#207
			50.00		1.2244E-03		#176
			55.00		784.08E-06		#145
			60.00		301.75E-06		#114
			65.00		208.20E-06		#83
			70.00		76.980E-06		#52
			75.00		102.27E-06		#21
		END_DATA
	END_SCAN  13
	BEGIN_SCAN  14
		TASK_NAME=DOSE
		GROUP_NAME=LR_24.8
		PROGRAM=BeamAdjust 2.3.0.25
		COMMENT=G000, E221_c-dhex3.6_4
		MEAS_DATE=08-Jun-2024 21:46:39
		LINAC=HIT
		MODALITY=P
		INPLANE_AXIS_DIR=TARGET_GUN
		CROSSPLANE_AXIS_DIR=LEFT_RIGHT
		DEPTH_AXIS_DIR=UP_DOWN
		ENERGY=0.00
		SSD=0.00
		FIELD_INPLANE=50.00
		FIELD_CROSSPLANE=50.00
		FIELD_TYPE=RECTANGULAR
		GANTRY=0.00
		GANTRY_UPRIGHT_POSITION=0
		GANTRY_ROTATION=CW
		COLL_ANGLE=90.00
		SCAN_DEVICE=OCTAVIUS_1600_XDR
		ELECTROMETER=DETECTOR_INTERFACE
		ELECTROMETER_SN=5987
		DETECTOR=OCTAVIUS_1600_XDR
		DETECTOR_SN=191760
		FILTER=FF
		SCAN_CURVETYPE=CROSSPLANE_PROFILE
		SCAN_DEPTH=0.00
		SCAN_OFFAXIS_INPLANE=-22.50
		SCAN_ANGLE=0.00
		SCAN_DIAGONAL=NOT_DIAGONAL
		MEAS_PRESET=TIME_PRESET
		MEAS_TIME=24.800
		MEAS_UNIT=GY
		PRESSURE=995.30
		TEMPERATURE=19.10
		NORM_TEMPERATURE=20.00
		CORRECTION_FACTOR=1.1270
		CALIBRATION_FILE=C:\Users\Public\Documents\PTW\Common Files\Calibration Files\230554201_OCTAVIUS1600XDR_191760.cal
		CORRECTIONS=AIR_DENSITY_CORR;FACTOR_CORR;
		BEGIN_DATA
			-32.50		47.102E-03		#1238
			-30.00		52.682E-03		#1202
			-27.50		55.727E-03		#1166
			-25.00		57.709E-03		#1130
			-22.50		58.701E-03		#1094
			-20.00		59.377E-03		#1058
			-17.50		59.638E-03		#1022
			-15.00		59.189E-03		#986
			-12.50		59.505E-03		#950
			-10.00		60.033E-03		#914
			-7.50		59.569E-03		#878
			-5.00		59.540E-03		#842
			-2.50		59.778E-03		#806
			0.00		59.752E-03		#770
			2.50		59.880E-03		#734
			5.00		59.684E-03		#698
			7.50		59.711E-03		#662
			10.00		59.550E-03		#626
			12.50		59.662E-03		#590
			15.00		59.529E-03		#554
			17.50		58.924E-03		#518
			20.00		58.573E-03		#482
			22.50		57.494E-03		#446
			25.00		55.400E-03		#410
			27.50		51.722E-03		#374
			30.00		46.048E-03		#338
			32.50		37.781E-03		#302
		END_DATA
	END_SCAN  14
	BEGIN_SCAN  15
		TASK_NAME=DOSE
		GROUP_NAME=LR_24.8
		PROGRAM=BeamAdjust 2.3.0.25
		COMMENT=G000, E221_c-dhex3.6_4
		MEAS_DATE=08-Jun-2024 21:46:39
		LINAC=HIT
		MODALITY=P
		INPLANE_AXIS_DIR=TARGET_GUN
		CROSSPLANE_AXIS_DIR=LEFT_RIGHT
		DEPTH_AXIS_DIR=UP_DOWN
		ENERGY=0.00
		SSD=0.00
		FIELD_INPLANE=50.00
		FIELD_CROSSPLANE=50.00
		FIELD_TYPE=RECTANGULAR
		GANTRY=0.00
		GANTRY_UPRIGHT_POSITION=0
		GANTRY_ROTATION=CW
		COLL_ANGLE=90.00
		SCAN_DEVICE=OCTAVIUS_1600_XDR
		ELECTROMETER=DETECTOR_INTERFACE
		ELECTROMETER_SN=5987
		DETECTOR=OCTAVIUS_1600_XDR
		DETECTOR_SN=191760
		FILTER=FF
		SCAN_CURVETYPE=CROSSPLANE_PROFILE
		SCAN_DEPTH=0.00
		SCAN_OFFAXIS_INPLANE=-20.00
		SCAN_ANGLE=0.00
		SCAN_DIAGONAL=NOT_DIAGONAL
		MEAS_PRESET=TIME_PRESET
		MEAS_TIME=24.800
		MEAS_UNIT=GY
		PRESSURE=995.30
		TEMPERATURE=19.10
		NORM_TEMPERATURE=20.00
		CORRECTION_FACTOR=1.1270
		CALIBRATION_FILE=C:\Users\Public\Documents\PTW\Common Files\Calibration Files\230554201_OCTAVIUS1600XDR_191760.cal
		CORRECTIONS=AIR_DENSITY_CORR;FACTOR_CORR;
		BEGIN_DATA
			-75.00		285.16E-06		#1510
			-70.00		295.79E-06		#1479
			-65.00		282.90E-06		#1448
			-60.00		211.44E-06		#1417
			-55.00		832.60E-06		#1386
			-50.00		2.2534E-03		#1355
			-45.00		7.9103E-03		#1324
			-40.00		21.599E-03		#1293
			-35.00		40.421E-03		#1262
			-32.50		47.521E-03		#1237
			-30.00		53.364E-03		#1201
			-27.50		56.194E-03		#1165
			-25.00		58.559E-03		#1129
			-22.50		59.257E-03		#1093
			-20.00		59.560E-03		#1057
			-17.50		60.129E-03		#1021
			-15.00		60.597E-03		#985
			-12.50		60.339E-03		#949
			-10.00		60.515E-03		#913
			-7.50		60.816E-03		#877
			-5.00		60.149E-03		#841
			-2.50		60.341E-03		#805
			0.00		60.161E-03		#769
			2.50		60.377E-03		#733
			5.00		60.304E-03		#697
			7.50		60.228E-03		#661
			10.00		60.595E-03		#625
			12.50		60.437E-03		#589
			15.00		60.142E-03		#553
			17.50		59.791E-03		#517
			20.00		59.694E-03		#481
			22.50		58.112E-03		#445
			25.00		56.279E-03		#409
			27.50		52.451E-03		#373
			30.00		46.505E-03		#337
			32.50		38.609E-03		#301
			35.00		28.910E-03		#268
			40.00		12.548E-03		#237
			45.00		3.9231E-03		#206
			50.00		1.3097E-03		#175
			55.00		594.69E-06		#144
			60.00		471.94E-06		#113
			65.00		125.75E-06		#82
			70.00		59.366E-06		#51
			75.00		168.39E-06		#20
		END_DATA
	END_SCAN  15
	BEGIN_SCAN  16
		TASK_NAME=DOSE
		GROUP_NAME=LR_24.8
