BEGIN_SCAN_DATA
	FORMAT=CC-Export V1.9                  
	FILE_CREATION_DATE=08-Jun-2024 21:46:11
	LAST_MODIFIED=08-Jun-2024 21:46:11
	BEGIN_SCAN  1
		TASK_NAME=DOSE
		GROUP_NAME=LR_33.6
		PROGRAM=BeamAdjust 2.3.0.25
		COMMENT=G000, E221_c-dhex3.6_4
		MEAS_DATE=08-Jun-2024 21:45:57
		LINAC=HIT
		MODALITY=P
		INPLANE_AXIS_DIR=TARGET_GUN
		CROSSPLANE_AXIS_DIR=LEFT_RIGHT
		DEPTH_AXIS_DIR=UP_DOWN
		ENERGY=0.00
		SSD=0.00
		FIELD_INPLANE=50.00
		FIELD_CROSSPLANE=50.00
		FIELD_TYPE=RECTANGULAR
		GANTRY=0.00
		GANTRY_UPRIGHT_POSITION=0
		GANTRY_ROTATION=CW
		COLL_ANGLE=90.00
		SCAN_DEVICE=OCTAVIUS_1600_XDR
		ELECTROMETER=DETECTOR_INTERFACE
		ELECTROMETER_SN=5987
		DETECTOR=OCTAVIUS_1600_XDR
		DETECTOR_SN=191760
		FILTER=FF
		SCAN_CURVETYPE=CROSSPLANE_PROFILE
		SCAN_DEPTH=0.00
		SCAN_OFFAXIS_INPLANE=-75.00
		SCAN_ANGLE=0.00
		SCAN_DIAGONAL=NOT_DIAGONAL
		MEAS_PRESET=TIME_PRESET
		MEAS_TIME=33.600
		MEAS_UNIT=GY
		PRESSURE=995.30
		TEMPERATURE=19.10
		NORM_TEMPERATURE=20.00
		CORRECTION_FACTOR=1.1270
		CALIBRATION_FILE=C:\Users\Public\Documents\PTW\Common Files\Calibration Files\230554201_OCTAVIUS1600XDR_191760.cal
		CORRECTIONS=AIR_DENSITY_CORR;FACTOR_CORR;
		BEGIN_DATA
			-75.00		46.523E-06		#1521
			-70.00		111.10E-06		#1490
			-65.00		48.773E-06		#1459
			-60.00		43.152E-06		#1428
			-55.00		42.553E-06		#1397
			-50.00		-34.858E-06		#1366
			-45.00		25.870E-06		#1335
			-40.00		-23.398E-06		#1304
			-35.00		51.592E-06		#1273
			-30.00		115.85E-06		#1215
			-25.00		326.25E-06		#1143
			-20.00		244.24E-06		#1071
			-15.00		351.12E-06		#999
			-10.00		80.924E-06		#927
			-5.00		228.02E-06		#855
			0.00		146.40E-06		#783
			5.00		194.97E-06		#711
			10.00		-89.687E-06		#639
			15.00		138.67E-06		#567
			20.00		106.98E-06		#495
			25.00		264.11E-06		#423
			30.00		78.219E-06		#351
			35.00		322.45E-06		#279
			40.00		359.05E-06		#248
			45.00		-1.4296E-06		#217
			50.00		-208.93E-06		#186
			55.00		124.31E-06		#155
			60.00		21.790E-06		#124
			65.00		105.71E-06		#93
			70.00		303.37E-06		#62
			75.00		-38.589E-06		#31
		END_DATA
	END_SCAN  1
	BEGIN_SCAN  2
		TASK_NAME=DOSE
		GROUP_NAME=LR_33.6
		PROGRAM=BeamAdjust 2.3.0.25
		COMMENT=G000, E221_c-dhex3.6_4
		MEAS_DATE=08-Jun-2024 21:45:57
		LINAC=HIT
		MODALITY=P
		INPLANE_AXIS_DIR=TARGET_GUN
		CROSSPLANE_AXIS_DIR=LEFT_RIGHT
		DEPTH_AXIS_DIR=UP_DOWN
		ENERGY=0.00
		SSD=0.00
		FIELD_INPLANE=50.00
		FIELD_CROSSPLANE=50.00
		FIELD_TYPE=RECTANGULAR
		GANTRY=0.00
		GANTRY_UPRIGHT_POSITION=0
		GANTRY_ROTATION=CW
		COLL_ANGLE=90.00
		SCAN_DEVICE=OCTAVIUS_1600_XDR
		ELECTROMETER=DETECTOR_INTERFACE
		ELECTROMETER_SN=5987
		DETECTOR=OCTAVIUS_1600_XDR
		DETECTOR_SN=191760
		FILTER=FF
		SCAN_CURVETYPE=CROSSPLANE_PROFILE
		SCAN_DEPTH=0.00
		SCAN_OFFAXIS_INPLANE=-70.00
		SCAN_ANGLE=0.00
		SCAN_DIAGONAL=NOT_DIAGONAL
		MEAS_PRESET=TIME_PRESET
		MEAS_TIME=33.600
		MEAS_UNIT=GY
		PRESSURE=995.30
		TEMPERATURE=19.10
		NORM_TEMPERATURE=20.00
		CORRECTION_FACTOR=1.1270
		CALIBRATION_FILE=C:\Users\Public\Documents\PTW\Common Files\Calibration Files\230554201_OCTAVIUS1600XDR_191760.cal
		CORRECTIONS=AIR_DENSITY_CORR;FACTOR_CORR;
		BEGIN_DATA
			-75.00		166.16E-06		#1520
			-70.00		272.92E-06		#1489
			-65.00		203.19E-06		#1458
			-60.00		37.751E-06		#1427
			-55.00		42.784E-06		#1396
			-50.00		-16.800E-06		#1365
			-45.00		326.89E-06		#1334
			-40.00		63.707E-06		#1303
			-35.00		438.39E-06		#1272
			-30.00		353.58E-06		#1214
			-25.00		88.846E-06		#1142
			-20.00		3.8369E-06		#1070
			-15.00		174.96E-06		#998
			-10.00		277.53E-06		#926
			-5.00		421.84E-06		#854
			0.00		296.30E-06		#782
			5.00		353.91E-06		#710
			10.00		207.36E-06		#638
			15.00		141.16E-06		#566
			20.00		-316.83E-06		#494
			25.00		346.68E-06		#422
			30.00		105.11E-06		#350
			35.00		279.84E-06		#278
			40.00		8.3525E-06		#247
			45.00		-717.25E-09		#216
			50.00		332.81E-06		#185
			55.00		199.48E-06		#154
			60.00		86.413E-06		#123
			65.00		77.756E-06		#92
			70.00		59.316E-06		#61
			75.00		168.52E-06		#30
		END_DATA
	END_SCAN  2
	BEGIN_SCAN  3
		TASK_NAME=DOSE
		GROUP_NAME=LR_33.6
		PROGRAM=BeamAdjust 2.3.0.25
		COMMENT=G000, E221_c-dhex3.6_4
		MEAS_DATE=08-Jun-2024 21:45:57
		LINAC=HIT
		MODALITY=P
		INPLANE_AXIS_DIR=TARGET_GUN
		CROSSPLANE_AXIS_DIR=LEFT_RIGHT
		DEPTH_AXIS_DIR=UP_DOWN
		ENERGY=0.00
		SSD=0.00
		FIELD_INPLANE=50.00
		FIELD_CROSSPLANE=50.00
		FIELD_TYPE=RECTANGULAR
		GANTRY=0.00
		GANTRY_UPRIGHT_POSITION=0
		GANTRY_ROTATION=CW
		COLL_ANGLE=90.00
		SCAN_DEVICE=OCTAVIUS_1600_XDR
		ELECTROMETER=DETECTOR_INTERFACE
		ELECTROMETER_SN=5987
		DETECTOR=OCTAVIUS_1600_XDR
		DETECTOR_SN=191760
		FILTER=FF
		SCAN_CURVETYPE=CROSSPLANE_PROFILE
		SCAN_DEPTH=0.00
		SCAN_OFFAXIS_INPLANE=-65.00
		SCAN_ANGLE=0.00
		SCAN_DIAGONAL=NOT_DIAGONAL
		MEAS_PRESET=TIME_PRESET
		MEAS_TIME=33.600
		MEAS_UNIT=GY
		PRESSURE=995.30
		TEMPERATURE=19.10
		NORM_TEMPERATURE=20.00
		CORRECTION_FACTOR=1.1270
		CALIBRATION_FILE=C:\Users\Public\Documents\PTW\Common Files\Calibration Files\230554201_OCTAVIUS1600XDR_191760.cal
		CORRECTIONS=AIR_DENSITY_CORR;FACTOR_CORR;
		BEGIN_DATA
			-75.00		82.978E-06		#1519
			-70.00		-207.06E-06		#1488
			-65.00		253.00E-06		#1457
			-60.00		172.98E-06		#1426
			-55.00		42.889E-06		#1395
			-50.00		410.10E-06		#1364
			-45.00		55.279E-06		#1333
			-40.00		206.19E-06		#1302
			-35.00		416.12E-06		#1271
			-30.00		377.55E-06		#1213
			-25.00		97.887E-06		#1141
			-20.00		266.90E-06		#1069
			-15.00		453.89E-06		#997
			-10.00		330.83E-06		#925
			-5.00		468.17E-06		#853
			0.00		358.40E-06		#781
			5.00		508.66E-06		#709
			10.00		403.98E-06		#637
			15.00		134.91E-06		#565
			20.00		184.99E-06		#493
			25.00		396.36E-06		#421
			30.00		68.100E-06		#349
			35.00		287.02E-06		#277
			40.00		145.86E-06		#246
			45.00		447.79E-06		#215
			50.00		61.933E-06		#184
			55.00		123.88E-06		#153
			60.00		73.031E-06		#122
			65.00		-26.215E-06		#91
			70.00		139.30E-06		#60
			75.00		122.64E-06		#29
		END_DATA
	END_SCAN  3
	BEGIN_SCAN  4
		TASK_NAME=DOSE
		GROUP_NAME=LR_33.6
		PROGRAM=BeamAdjust 2.3.0.25
		COMMENT=G000, E221_c-dhex3.6_4
		MEAS_DATE=08-Jun-2024 21:45:57
		LINAC=HIT
		MODALITY=P
		INPLANE_AXIS_DIR=TARGET_GUN
		CROSSPLANE_AXIS_DIR=LEFT_RIGHT
		DEPTH_AXIS_DIR=UP_DOWN
		ENERGY=0.00
		SSD=0.00
		FIELD_INPLANE=50.00
		FIELD_CROSSPLANE=50.00
		FIELD_TYPE=RECTANGULAR
		GANTRY=0.00
		GANTRY_UPRIGHT_POSITION=0
		GANTRY_ROTATION=CW
		COLL_ANGLE=90.00
		SCAN_DEVICE=OCTAVIUS_1600_XDR
		ELECTROMETER=DETECTOR_INTERFACE
		ELECTROMETER_SN=5987
		DETECTOR=OCTAVIUS_1600_XDR
		DETECTOR_SN=191760
		FILTER=FF
		SCAN_CURVETYPE=CROSSPLANE_PROFILE
		SCAN_DEPTH=0.00
		SCAN_OFFAXIS_INPLANE=-60.00
		SCAN_ANGLE=0.00
		SCAN_DIAGONAL=NOT_DIAGONAL
		MEAS_PRESET=TIME_PRESET
		MEAS_TIME=33.600
		MEAS_UNIT=GY
		PRESSURE=995.30
		TEMPERATURE=19.10
		NORM_TEMPERATURE=20.00
		CORRECTION_FACTOR=1.1270
		CALIBRATION_FILE=C:\Users\Public\Documents\PTW\Common Files\Calibration Files\230554201_OCTAVIUS1600XDR_191760.cal
		CORRECTIONS=AIR_DENSITY_CORR;FACTOR_CORR;
		BEGIN_DATA
			-75.00		10.405E-06		#1518
			-70.00		-21.919E-06		#1487
			-65.00		245.82E-06		#1456
			-60.00		89.280E-06		#1425
			-55.00		259.47E-06		#1394
			-50.00		261.11E-06		#1363
			-45.00		326.70E-06		#1332
			-40.00		358.99E-06		#1301
			-35.00		275.18E-06		#1270
			-30.00		450.36E-06		#1212
			-25.00		594.33E-06		#1140
			-20.00		565.76E-06		#1068
			-15.00		553.31E-06		#996
			-10.00		761.97E-06		#924
			-5.00		980.67E-06		#852
			0.00		639.66E-06		#780
			5.00		541.85E-06		#708
			10.00		619.75E-06		#636
			15.00		629.66E-06		#564
			20.00		458.52E-06		#492
			25.00		286.06E-06		#420
			30.00		625.10E-06		#348
			35.00		291.40E-06		#276
			40.00		394.96E-06		#245
			45.00		179.52E-06		#214
			50.00		303.77E-06		#183
			55.00		258.35E-06		#152
			60.00		376.45E-06		#121
			65.00		456.92E-06		#90
			70.00		52.014E-06		#59
			75.00		406.61E-06		#28
		END_DATA
	END_SCAN  4
	BEGIN_SCAN  5
		TASK_NAME=DOSE
		GROUP_NAME=LR_33.6
		PROGRAM=BeamAdjust 2.3.0.25
		COMMENT=G000, E221_c-dhex3.6_4
		MEAS_DATE=08-Jun-2024 21:45:57
		LINAC=HIT
		MODALITY=P
		INPLANE_AXIS_DIR=TARGET_GUN
		CROSSPLANE_AXIS_DIR=LEFT_RIGHT
		DEPTH_AXIS_DIR=UP_DOWN
		ENERGY=0.00
		SSD=0.00
		FIELD_INPLANE=50.00
		FIELD_CROSSPLANE=50.00
		FIELD_TYPE=RECTANGULAR
		GANTRY=0.00
		GANTRY_UPRIGHT_POSITION=0
		GANTRY_ROTATION=CW
		COLL_ANGLE=90.00
		SCAN_DEVICE=OCTAVIUS_1600_XDR
		ELECTROMETER=DETECTOR_INTERFACE
		ELECTROMETER_SN=5987
		DETECTOR=OCTAVIUS_1600_XDR
		DETECTOR_SN=191760
		FILTER=FF
		SCAN_CURVETYPE=CROSSPLANE_PROFILE
		SCAN_DEPTH=0.00
		SCAN_OFFAXIS_INPLANE=-55.00
		SCAN_ANGLE=0.00
		SCAN_DIAGONAL=NOT_DIAGONAL
		MEAS_PRESET=TIME_PRESET
		MEAS_TIME=33.600
		MEAS_UNIT=GY
		PRESSURE=995.30
		TEMPERATURE=19.10
		NORM_TEMPERATURE=20.00
		CORRECTION_FACTOR=1.1270
		CALIBRATION_FILE=C:\Users\Public\Documents\PTW\Common Files\Calibration Files\230554201_OCTAVIUS1600XDR_191760.cal
		CORRECTIONS=AIR_DENSITY_CORR;FACTOR_CORR;
		BEGIN_DATA
			-75.00		-41.401E-06		#1517
			-70.00		166.09E-06		#1486
			-65.00		112.90E-06		#1455
			-60.00		158.85E-06		#1424
			-55.00		266.26E-06		#1393
			-50.00		280.34E-06		#1362
			-45.00		445.01E-06		#1331
			-40.00		743.05E-06		#1300
			-35.00		947.68E-06		#1269
			-30.00		1.0908E-03		#1211
			-25.00		1.1671E-03		#1139
			-20.00		1.0227E-03		#1067
			-15.00		1.3708E-03		#995
			-10.00		1.1130E-03		#923
			-5.00		1.1429E-03		#851
			0.00		1.2392E-03		#779
			5.00		1.3643E-03		#707
			10.00		1.4157E-03		#635
			15.00		1.1641E-03		#563
			20.00		1.4798E-03		#491
			25.00		857.83E-06		#419
			30.00		846.43E-06		#347
			35.00		657.67E-06		#275
			40.00		196.21E-06		#244
			45.00		744.69E-06		#213
			50.00		412.06E-06		#182
			55.00		172.86E-06		#151
			60.00		144.24E-06		#120
			65.00		-6.5796E-06		#89
			70.00		96.416E-06		#58
			75.00		-120.66E-06		#27
		END_DATA
	END_SCAN  5
	BEGIN_SCAN  6
		TASK_NAME=DOSE
		GROUP_NAME=LR_33.6
		PROGRAM=BeamAdjust 2.3.0.25
		COMMENT=G000, E221_c-dhex3.6_4
		MEAS_DATE=08-Jun-2024 21:45:57
		LINAC=HIT
		MODALITY=P
		INPLANE_AXIS_DIR=TARGET_GUN
		CROSSPLANE_AXIS_DIR=LEFT_RIGHT
		DEPTH_AXIS_DIR=UP_DOWN
		ENERGY=0.00
		SSD=0.00
		FIELD_INPLANE=50.00
		FIELD_CROSSPLANE=50.00
		FIELD_TYPE=RECTANGULAR
		GANTRY=0.00
		GANTRY_UPRIGHT_POSITION=0
		GANTRY_ROTATION=CW
		COLL_ANGLE=90.00
		SCAN_DEVICE=OCTAVIUS_1600_XDR
		ELECTROMETER=DETECTOR_INTERFACE
		ELECTROMETER_SN=5987
		DETECTOR=OCTAVIUS_1600_XDR
		DETECTOR_SN=191760
		FILTER=FF
		SCAN_CURVETYPE=CROSSPLANE_PROFILE
		SCAN_DEPTH=0.00
		SCAN_OFFAXIS_INPLANE=-50.00
		SCAN_ANGLE=0.00
		SCAN_DIAGONAL=NOT_DIAGONAL
		MEAS_PRESET=TIME_PRESET
		MEAS_TIME=33.600
		MEAS_UNIT=GY
		PRESSURE=995.30
		TEMPERATURE=19.10
		NORM_TEMPERATURE=20.00
		CORRECTION_FACTOR=1.1270
		CALIBRATION_FILE=C:\Users\Public\Documents\PTW\Common Files\Calibration Files\230554201_OCTAVIUS1600XDR_191760.cal
		CORRECTIONS=AIR_DENSITY_CORR;FACTOR_CORR;
		BEGIN_DATA
			-75.00		86.599E-06		#1516
			-70.00		115.68E-06		#1485
			-65.00		47.379E-06		#1454
			-60.00		323.53E-06		#1423
			-55.00		183.37E-06		#1392
			-50.00		472.88E-06		#1361
			-45.00		954.51E-06		#1330
			-40.00		1.5705E-03		#1299
			-35.00		1.8528E-03		#1268
			-30.00		2.7672E-03		#1210
			-25.00		2.8177E-03		#1138
			-20.00		3.0259E-03		#1066
			-15.00		2.9605E-03		#994
			-10.00		3.1037E-03		#922
			-5.00		3.3560E-03		#850
			0.00		3.3661E-03		#778
			5.00		3.1838E-03		#706
			10.00		3.2191E-03		#634
			15.00		3.1766E-03		#562
			20.00		3.1361E-03		#490
			25.00		2.7635E-03		#418
			30.00		2.3455E-03		#346
			35.00		1.6325E-03		#274
			40.00		1.3468E-03		#243
			45.00		520.44E-06		#212
			50.00		339.23E-06		#181
			55.00		235.86E-06		#150
			60.00		155.72E-06		#119
			65.00		246.81E-06		#88
			70.00		331.62E-06		#57
			75.00		-220.51E-06		#26
		END_DATA
	END_SCAN  6
	BEGIN_SCAN  7
		TASK_NAME=DOSE
		GROUP_NAME=LR_33.6
		PROGRAM=BeamAdjust 2.3.0.25
		COMMENT=G000, E221_c-dhex3.6_4
		MEAS_DATE=08-Jun-2024 21:45:57
		LINAC=HIT
		MODALITY=P
		INPLANE_AXIS_DIR=TARGET_GUN
		CROSSPLANE_AXIS_DIR=LEFT_RIGHT
		DEPTH_AXIS_DIR=UP_DOWN
		ENERGY=0.00
		SSD=0.00
		FIELD_INPLANE=50.00
		FIELD_CROSSPLANE=50.00
		FIELD_TYPE=RECTANGULAR
		GANTRY=0.00
		GANTRY_UPRIGHT_POSITION=0
		GANTRY_ROTATION=CW
		COLL_ANGLE=90.00
		SCAN_DEVICE=OCTAVIUS_1600_XDR
		ELECTROMETER=DETECTOR_INTERFACE
		ELECTROMETER_SN=5987
		DETECTOR=OCTAVIUS_1600_XDR
		DETECTOR_SN=191760
		FILTER=FF
		SCAN_CURVETYPE=CROSSPLANE_PROFILE
		SCAN_DEPTH=0.00
		SCAN_OFFAXIS_INPLANE=-45.00
		SCAN_ANGLE=0.00
		SCAN_DIAGONAL=NOT_DIAGONAL
		MEAS_PRESET=TIME_PRESET
		MEAS_TIME=33.600
		MEAS_UNIT=GY
		PRESSURE=995.30
		TEMPERATURE=19.10
		NORM_TEMPERATURE=20.00
		CORRECTION_FACTOR=1.1270
		CALIBRATION_FILE=C:\Users\Public\Documents\PTW\Common Files\Calibration Files\230554201_OCTAVIUS1600XDR_191760.cal
		CORRECTIONS=AIR_DENSITY_CORR;FACTOR_CORR;
		BEGIN_DATA
			-75.00		274.16E-06		#1515
			-70.00		-57.738E-06		#1484
			-65.00		165.55E-06		#1453
			-60.00		253.08E-06		#1422
			-55.00		599.90E-06		#1391
			-50.00		1.0669E-03		#1360
			-45.00		1.9062E-03		#1329
			-40.00		3.1474E-03		#1298
			-35.00		5.0014E-03		#1267
			-30.00		6.7439E-03		#1209
			-25.00		7.5952E-03		#1137
			-20.00		8.1603E-03		#1065
			-15.00		8.4100E-03		#993
			-10.00		8.3141E-03		#921
			-5.00		8.6252E-03		#849
			0.00		8.7854E-03		#777
			5.00		8.8549E-03		#705
			10.00		8.6598E-03		#633
			15.00		8.3419E-03		#561
			20.00		8.3627E-03		#489
			25.00		7.7214E-03		#417
			30.00		6.5188E-03		#345
			35.00		4.4595E-03		#273
			40.00		2.8110E-03		#242
			45.00		1.5779E-03		#211
			50.00		709.86E-06		#180
			55.00		211.01E-06		#149
			60.00		204.58E-06		#118
			65.00		322.70E-06		#87
			70.00		168.96E-06		#56
			75.00		20.247E-06		#25
		END_DATA
	END_SCAN  7
	BEGIN_SCAN  8
		TASK_NAME=DOSE
		GROUP_NAME=LR_33.6
		PROGRAM=BeamAdjust 2.3.0.25
		COMMENT=G000, E221_c-dhex3.6_4
		MEAS_DATE=08-Jun-2024 21:45:57
		LINAC=HIT
		MODALITY=P
		INPLANE_AXIS_DIR=TARGET_GUN
		CROSSPLANE_AXIS_DIR=LEFT_RIGHT
		DEPTH_AXIS_DIR=UP_DOWN
		ENERGY=0.00
		SSD=0.00
		FIELD_INPLANE=50.00
		FIELD_CROSSPLANE=50.00
		FIELD_TYPE=RECTANGULAR
		GANTRY=0.00
		GANTRY_UPRIGHT_POSITION=0
		GANTRY_ROTATION=CW
		COLL_ANGLE=90.00
		SCAN_DEVICE=OCTAVIUS_1600_XDR
		ELECTROMETER=DETECTOR_INTERFACE
		ELECTROMETER_SN=5987
		DETECTOR=OCTAVIUS_1600_XDR
		DETECTOR_SN=191760
		FILTER=FF
		SCAN_CURVETYPE=CROSSPLANE_PROFILE
		SCAN_DEPTH=0.00
		SCAN_OFFAXIS_INPLANE=-40.00
		SCAN_ANGLE=0.00
		SCAN_DIAGONAL=NOT_DIAGONAL
		MEAS_PRESET=TIME_PRESET
		MEAS_TIME=33.600
		MEAS_UNIT=GY
		PRESSURE=995.30
		TEMPERATURE=19.10
		NORM_TEMPERATURE=20.00
		CORRECTION_FACTOR=1.1270
		CALIBRATION_FILE=C:\Users\Public\Documents\PTW\Common Files\Calibration Files\230554201_OCTAVIUS1600XDR_191760.cal
		CORRECTIONS=AIR_DENSITY_CORR;FACTOR_CORR;
		BEGIN_DATA
			-75.00		57.873E-06		#1514
			-70.00		134.58E-06		#1483
			-65.00		317.53E-06		#1452
			-60.00		167.53E-06		#1421
			-55.00		945.58E-06		#1390
			-50.00		1.6049E-03		#1359
			-45.00		3.5347E-03		#1328
			-40.00		7.4107E-03		#1297
			-35.00		12.231E-03		#1266
			-30.00		16.538E-03		#1208
			-25.00		18.750E-03		#1136
			-20.00		19.407E-03		#1064
			-15.00		20.026E-03		#992
			-10.00		19.951E-03		#920
			-5.00		20.441E-03		#848
			0.00		20.259E-03		#776
			5.00		20.482E-03		#704
			10.00		20.629E-03		#632
			15.00		20.048E-03		#560
			20.00		20.160E-03		#488
			25.00		18.751E-03		#416
			30.00		15.396E-03		#344
			35.00		10.546E-03		#272
			40.00		5.6459E-03		#241
			45.00		2.5948E-03		#210
			50.00		749.47E-06		#179
			55.00		663.62E-06		#148
			60.00		167.29E-06		#117
			65.00		274.67E-06		#86
			70.00		232.65E-06		#55
			75.00		531.90E-06		#24
		END_DATA
	END_SCAN  8
	BEGIN_SCAN  9
		TASK_NAME=DOSE
		GROUP_NAME=LR_33.6
		PROGRAM=BeamAdjust 2.3.0.25
		COMMENT=G000, E221_c-dhex3.6_4
		MEAS_DATE=08-Jun-2024 21:45:57
		LINAC=HIT
		MODALITY=P
		INPLANE_AXIS_DIR=TARGET_GUN
		CROSSPLANE_AXIS_DIR=LEFT_RIGHT
		DEPTH_AXIS_DIR=UP_DOWN
		ENERGY=0.00
		SSD=0.00
		FIELD_INPLANE=50.00
		FIELD_CROSSPLANE=50.00
		FIELD_TYPE=RECTANGULAR
		GANTRY=0.00
		GANTRY_UPRIGHT_POSITION=0
		GANTRY_ROTATION=CW
		COLL_ANGLE=90.00
		SCAN_DEVICE=OCTAVIUS_1600_XDR
		ELECTROMETER=DETECTOR_INTERFACE
		ELECTROMETER_SN=5987
		DETECTOR=OCTAVIUS_1600_XDR
		DETECTOR_SN=191760
		FILTER=FF
		SCAN_CURVETYPE=CROSSPLANE_PROFILE
		SCAN_DEPTH=0.00
		SCAN_OFFAXIS_INPLANE=-35.00
		SCAN_ANGLE=0.00
		SCAN_DIAGONAL=NOT_DIAGONAL
		MEAS_PRESET=TIME_PRESET
		MEAS_TIME=33.600
		MEAS_UNIT=GY
		PRESSURE=995.30
		TEMPERATURE=19.10
		NORM_TEMPERATURE=20.00
		CORRECTION_FACTOR=1.1270
		CALIBRATION_FILE=C:\Users\Public\Documents\PTW\Common Files\Calibration Files\230554201_OCTAVIUS1600XDR_191760.cal
		CORRECTIONS=AIR_DENSITY_CORR;FACTOR_CORR;
		BEGIN_DATA
			-75.00		361.63E-06		#1513
			-70.00		124.11E-06		#1482
			-65.00		461.70E-06		#1451
			-60.00		563.11E-06		#1420
			-55.00		1.0101E-03		#1389
			-50.00		2.5464E-03		#1358
			-45.00		6.1935E-03		#1327
			-40.00		13.536E-03		#1296
			-35.00		23.121E-03		#1265
			-30.00		30.380E-03		#1207
			-25.00		34.231E-03		#1135
			-20.00		35.882E-03		#1063
			-15.00		36.351E-03		#991
			-10.00		36.876E-03		#919
			-5.00		37.088E-03		#847
			0.00		37.162E-03		#775
			5.00		37.035E-03		#703
			10.00		37.233E-03		#631
			15.00		36.463E-03		#559
			20.00		36.470E-03		#487
			25.00		33.861E-03		#415
			30.00		27.942E-03		#343
			35.00		18.836E-03		#271
			40.00		9.5688E-03		#240
			45.00		3.8274E-03		#209
			50.00		1.2768E-03		#178
			55.00		412.90E-06		#147
			60.00		417.94E-06		#116
			65.00		-110.91E-06		#85
			70.00		107.61E-06		#54
			75.00		30.344E-06		#23
		END_DATA
	END_SCAN  9
	BEGIN_SCAN  10
		TASK_NAME=DOSE
		GROUP_NAME=LR_33.6
		PROGRAM=BeamAdjust 2.3.0.25
		COMMENT=G000, E221_c-dhex3.6_4
		MEAS_DATE=08-Jun-2024 21:45:57
		LINAC=HIT
		MODALITY=P
		INPLANE_AXIS_DIR=TARGET_GUN
		CROSSPLANE_AXIS_DIR=LEFT_RIGHT
		DEPTH_AXIS_DIR=UP_DOWN
		ENERGY=0.00
		SSD=0.00
		FIELD_INPLANE=50.00
		FIELD_CROSSPLANE=50.00
		FIELD_TYPE=RECTANGULAR
		GANTRY=0.00
		GANTRY_UPRIGHT_POSITION=0
		GANTRY_ROTATION=CW
		COLL_ANGLE=90.00
		SCAN_DEVICE=OCTAVIUS_1600_XDR
		ELECTROMETER=DETECTOR_INTERFACE
		ELECTROMETER_SN=5987
		DETECTOR=OCTAVIUS_1600_XDR
		DETECTOR_SN=191760
		FILTER=FF
		SCAN_CURVETYPE=CROSSPLANE_PROFILE
		SCAN_DEPTH=0.00
		SCAN_OFFAXIS_INPLANE=-32.50
		SCAN_ANGLE=0.00
		SCAN_DIAGONAL=NOT_DIAGONAL
		MEAS_PRESET=TIME_PRESET
		MEAS_TIME=33.600
		MEAS_UNIT=GY
		PRESSURE=995.30
		TEMPERATURE=19.10
		NORM_TEMPERATURE=20.00
		CORRECTION_FACTOR=1.1270
		CALIBRATION_FILE=C:\Users\Public\Documents\PTW\Common Files\Calibration Files\230554201_OCTAVIUS1600XDR_191760.cal
		CORRECTIONS=AIR_DENSITY_CORR;FACTOR_CORR;
		BEGIN_DATA
			-32.50		33.258E-03		#1242
			-30.00		37.119E-03		#1206
			-27.50		40.278E-03		#1170
			-25.00		42.131E-03		#1134
			-22.50		43.112E-03		#1098
			-20.00		43.551E-03		#1062
			-17.50		44.157E-03		#1026
			-15.00		44.003E-03		#990
			-12.50		44.676E-03		#954
			-10.00		44.686E-03		#918
			-7.50		44.908E-03		#882
			-5.00		44.805E-03		#846
			-2.50		44.992E-03		#810
			0.00		45.179E-03		#774
			2.50		44.847E-03		#738
			5.00		45.106E-03		#702
			7.50		44.776E-03		#666
			10.00		45.037E-03		#630
			12.50		45.054E-03		#594
			15.00		44.633E-03		#558
			17.50		44.987E-03		#522
			20.00		43.931E-03		#486
			22.50		42.908E-03		#450
			25.00		40.946E-03		#414
			27.50		37.879E-03		#378
			30.00		33.674E-03		#342
			32.50		28.137E-03		#306
		END_DATA
	END_SCAN  10
	BEGIN_SCAN  11
		TASK_NAME=DOSE
		GROUP_NAME=LR_33.6
		PROGRAM=BeamAdjust 2.3.0.25
		COMMENT=G000, E221_c-dhex3.6_4
		MEAS_DATE=08-Jun-2024 21:45:57
		LINAC=HIT
		MODALITY=P
		INPLANE_AXIS_DIR=TARGET_GUN
		CROSSPLANE_AXIS_DIR=LEFT_RIGHT
		DEPTH_AXIS_DIR=UP_DOWN
		ENERGY=0.00
		SSD=0.00
		FIELD_INPLANE=50.00
		FIELD_CROSSPLANE=50.00
		FIELD_TYPE=RECTANGULAR
		GANTRY=0.00
		GANTRY_UPRIGHT_POSITION=0
		GANTRY_ROTATION=CW
		COLL_ANGLE=90.00
		SCAN_DEVICE=OCTAVIUS_1600_XDR
		ELECTROMETER=DETECTOR_INTERFACE
		ELECTROMETER_SN=5987
		DETECTOR=OCTAVIUS_1600_XDR
		DETECTOR_SN=191760
		FILTER=FF
		SCAN_CURVETYPE=CROSSPLANE_PROFILE
		SCAN_DEPTH=0.00
		SCAN_OFFAXIS_INPLANE=-30.00
		SCAN_ANGLE=0.00
		SCAN_DIAGONAL=NOT_DIAGONAL
		MEAS_PRESET=TIME_PRESET
		MEAS_TIME=33.600
		MEAS_UNIT=GY
		PRESSURE=995.30
		TEMPERATURE=19.10
		NORM_TEMPERATURE=20.00
		CORRECTION_FACTOR=1.1270
		CALIBRATION_FILE=C:\Users\Public\Documents\PTW\Common Files\Calibration Files\230554201_OCTAVIUS1600XDR_191760.cal
		CORRECTIONS=AIR_DENSITY_CORR;FACTOR_CORR;
		BEGIN_DATA
			-75.00		171.30E-06		#1512
			-70.00		164.19E-06		#1481
			-65.00		322.05E-06		#1450
			-60.00		717.67E-06		#1419
			-55.00		1.2652E-03		#1388
			-50.00		3.1659E-03		#1357
			-45.00		8.6032E-03		#1326
			-40.00		19.331E-03		#1295
			-35.00		32.684E-03		#1264
			-32.50		38.417E-03		#1241
			-30.00		42.869E-03		#1205
			-27.50		45.669E-03		#1169
			-25.00		48.226E-03		#1133
			-22.50		49.347E-03		#1097
			-20.00		50.217E-03		#1061
			-17.50		50.812E-03		#1025
			-15.00		50.707E-03		#989
			-12.50		51.137E-03		#953
			-10.00		50.809E-03		#917
			-7.50		51.657E-03		#881
			-5.00		51.547E-03		#845
			-2.50		51.335E-03		#809
			0.00		51.272E-03		#773
			2.50		51.542E-03		#737
			5.00		51.307E-03		#701
			7.50		51.686E-03		#665
			10.00		51.300E-03		#629
			12.50		51.241E-03		#593
			15.00		51.145E-03		#557
			17.50		50.796E-03		#521
			20.00		50.133E-03		#485
			22.50		48.867E-03		#449
			25.00		46.576E-03		#413
			27.50		43.390E-03		#377
			30.00		38.058E-03		#341
			32.50		32.082E-03		#305
			35.00		25.240E-03		#270
			40.00		13.199E-03		#239
			45.00		4.9975E-03		#208
			50.00		1.7651E-03		#177
			55.00		908.49E-06		#146
			60.00		327.47E-06		#115
			65.00		289.22E-06		#84
			70.00		239.65E-06		#53
			75.00		-430.44E-06		#22
		END_DATA
	END_SCAN  11
	BEGIN_SCAN  12
		TASK_NAME=DOSE
		GROUP_NAME=LR_33.6
		PROGRAM=BeamAdjust 2.3.0.25
		COMMENT=G000, E221_c-dhex3.6_4
		MEAS_DATE=08-Jun-2024 21:45:57
		LINAC=HIT
		MODALITY=P
		INPLANE_AXIS_DIR=TARGET_GUN
		CROSSPLANE_AXIS_DIR=LEFT_RIGHT
		DEPTH_AXIS_DIR=UP_DOWN
		ENERGY=0.00
		SSD=0.00
		FIELD_INPLANE=50.00
		FIELD_CROSSPLANE=50.00
		FIELD_TYPE=RECTANGULAR
		GANTRY=0.00
		GANTRY_UPRIGHT_POSITION=0
		GANTRY_ROTATION=CW
		COLL_ANGLE=90.00
		SCAN_DEVICE=OCTAVIUS_1600_XDR
		ELECTROMETER=DETECTOR_INTERFACE
		ELECTROMETER_SN=5987
		DETECTOR=OCTAVIUS_1600_XDR
		DETECTOR_SN=191760
		FILTER=FF
		SCAN_CURVETYPE=CROSSPLANE_PROFILE
		SCAN_DEPTH=0.00
		SCAN_OFFAXIS_INPLANE=-27.50
		SCAN_ANGLE=0.00
		SCAN_DIAGONAL=NOT_DIAGONAL
		MEAS_PRESET=TIME_PRESET
		MEAS_TIME=33.600
		MEAS_UNIT=GY
		PRESSURE=995.30
		TEMPERATURE=19.10
		NORM_TEMPERATURE=20.00
		CORRECTION_FACTOR=1.1270
		CALIBRATION_FILE=C:\Users\Public\Documents\PTW\Common Files\Calibration Files\230554201_OCTAVIUS1600XDR_191760.cal
		CORRECTIONS=AIR_DENSITY_CORR;FACTOR_CORR;
		BEGIN_DATA
			-32.50		41.854E-03		#1240
			-30.00		47.015E-03		#1204
			-27.50		50.147E-03		#1168
			-25.00		52.672E-03		#1132
			-22.50		54.139E-03		#1096
			-20.00		54.900E-03		#1060
			-17.50		54.873E-03		#1024
			-15.00		56.017E-03		#988
			-12.50		55.754E-03		#952
			-10.00		56.240E-03		#916
			-7.50		56.159E-03		#880
			-5.00		56.150E-03		#844
			-2.50		55.990E-03		#808
			0.00		56.251E-03		#772
			2.50		56.330E-03		#736
			5.00		56.112E-03		#700
			7.50		56.656E-03		#664
			10.00		56.089E-03		#628
			12.50		56.221E-03		#592
			15.00		55.432E-03		#556
			17.50		55.028E-03		#520
			20.00		54.393E-03		#484
			22.50		53.174E-03		#448
			25.00		50.571E-03		#412
			27.50		46.769E-03		#376
			30.00		41.246E-03		#340
			32.50		34.738E-03		#304
		END_DATA
	END_SCAN  12
	BEGIN_SCAN  13
		TASK_NAME=DOSE
		GROUP_NAME=LR_33.6
		PROGRAM=BeamAdjust 2.3.0.25
		COMMENT=G000, E221_c-dhex3.6_4
		MEAS_DATE=08-Jun-2024 21:45:57
		LINAC=HIT
		MODALITY=P
		INPLANE_AXIS_DIR=TARGET_GUN
		CROSSPLANE_AXIS_DIR=LEFT_RIGHT
		DEPTH_AXIS_DIR=UP_DOWN
		ENERGY=0.00
		SSD=0.00
		FIELD_INPLANE=50.00
		FIELD_CROSSPLANE=50.00
		FIELD_TYPE=RECTANGULAR
		GANTRY=0.00
		GANTRY_UPRIGHT_POSITION=0
		GANTRY_ROTATION=CW
		COLL_ANGLE=90.00
		SCAN_DEVICE=OCTAVIUS_1600_XDR
		ELECTROMETER=DETECTOR_INTERFACE
		ELECTROMETER_SN=5987
		DETECTOR=OCTAVIUS_1600_XDR
		DETECTOR_SN=191760
		FILTER=FF
		SCAN_CURVETYPE=CROSSPLANE_PROFILE
		SCAN_DEPTH=0.00
		SCAN_OFFAXIS_INPLANE=-25.00
		SCAN_ANGLE=0.00
		SCAN_DIAGONAL=NOT_DIAGONAL
		MEAS_PRESET=TIME_PRESET
		MEAS_TIME=33.600
		MEAS_UNIT=GY
		PRESSURE=995.30
		TEMPERATURE=19.10
		NORM_TEMPERATURE=20.00
		CORRECTION_FACTOR=1.1270
		CALIBRATION_FILE=C:\Users\Public\Documents\PTW\Common Files\Calibration Files\230554201_OCTAVIUS1600XDR_191760.cal
		CORRECTIONS=AIR_DENSITY_CORR;FACTOR_CORR;
		BEGIN_DATA
			-75.00		105.49E-06		#1511
			-70.00		265.35E-06		#1480
			-65.00		502.65E-06		#1449
			-60.00		789.03E-06		#1418
			-55.00		1.2455E-03		#1387
			-50.00		3.9934E-03		#1356
			-45.00		10.173E-03		#1325
			-40.00		22.438E-03		#1294
			-35.00		37.952E-03		#1263
			-32.50		44.496E-03		#1239
			-30.00		50.020E-03		#1203
			-27.50		53.454E-03		#1167
			-25.00		55.786E-03		#1131
			-22.50		57.209E-03		#1095
			-20.00		57.955E-03		#1059
			-17.50		59.210E-03		#1023
			-15.00		58.520E-03		#987
			-12.50		59.351E-03		#951
			-10.00		59.057E-03		#915
			-7.50		59.498E-03		#879
			-5.00		59.365E-03		#843
			-2.50		59.179E-03		#807
			0.00		58.957E-03		#771
			2.50		59.549E-03		#735
			5.00		59.231E-03		#699
			7.50		59.264E-03		#663
			10.00		59.272E-03		#627
			12.50		59.200E-03		#591
			15.00		58.699E-03		#555
			17.50		58.321E-03		#519
			20.00		57.469E-03		#483
			22.50		55.938E-03		#447
			25.00		53.444E-03		#411
			27.50		48.846E-03		#375
			30.00		43.797E-03		#339
			32.50		36.474E-03		#303
			35.00		29.043E-03		#269
			40.00		14.446E-03		#238
			45.00		6.1608E-03		#207
			50.00		2.2997E-03		#176
			55.00		1.0900E-03		#145
			60.00		426.55E-06		#114
			65.00		330.96E-06		#83
			70.00		103.99E-06		#52
			75.00		153.05E-06		#21
		END_DATA
	END_SCAN  13
	BEGIN_SCAN  14
		TASK_NAME=DOSE
		GROUP_NAME=LR_33.6
		PROGRAM=BeamAdjust 2.3.0.25
		COMMENT=G000, E221_c-dhex3.6_4
		MEAS_DATE=08-Jun-2024 21:45:57
		LINAC=HIT
		MODALITY=P
		INPLANE_AXIS_DIR=TARGET_GUN
		CROSSPLANE_AXIS_DIR=LEFT_RIGHT
		DEPTH_AXIS_DIR=UP_DOWN
		ENERGY=0.00
		SSD=0.00
		FIELD_INPLANE=50.00
		FIELD_CROSSPLANE=50.00
		FIELD_TYPE=RECTANGULAR
		GANTRY=0.00
		GANTRY_UPRIGHT_POSITION=0
		GANTRY_ROTATION=CW
		COLL_ANGLE=90.00
		SCAN_DEVICE=OCTAVIUS_1600_XDR
		ELECTROMETER=DETECTOR_INTERFACE
		ELECTROMETER_SN=5987
		DETECTOR=OCTAVIUS_1600_XDR
		DETECTOR_SN=191760
		FILTER=FF
		SCAN_CURVETYPE=CROSSPLANE_PROFILE
		SCAN_DEPTH=0.00
		SCAN_OFFAXIS_INPLANE=-22.50
		SCAN_ANGLE=0.00
		SCAN_DIAGONAL=NOT_DIAGONAL
		MEAS_PRESET=TIME_PRESET
		MEAS_TIME=33.600
		MEAS_UNIT=GY
		PRESSURE=995.30
		TEMPERATURE=19.10
		NORM_TEMPERATURE=20.00
		CORRECTION_FACTOR=1.1270
		CALIBRATION_FILE=C:\Users\Public\Documents\PTW\Common Files\Calibration Files\230554201_OCTAVIUS1600XDR_191760.cal
		CORRECTIONS=AIR_DENSITY_CORR;FACTOR_CORR;
		BEGIN_DATA
			-32.50		45.545E-03		#1238
			-30.00		51.366E-03		#1202
			-27.50		55.086E-03		#1166
			-25.00		57.623E-03		#1130
			-22.50		59.013E-03		#1094
			-20.00		60.257E-03		#1058
			-17.50		60.484E-03		#1022
			-15.00		60.392E-03		#986
			-12.50		60.529E-03		#950
			-10.00		61.376E-03		#914
			-7.50		61.147E-03		#878
			-5.00		60.988E-03		#842
			-2.50		61.193E-03		#806
			0.00		61.013E-03		#770
			2.50		61.405E-03		#734
			5.00		61.223E-03		#698
			7.50		61.204E-03		#662
			10.00		60.994E-03		#626
			12.50		61.005E-03		#590
			15.00		60.458E-03		#554
			17.50		59.927E-03		#518
			20.00		58.861E-03		#482
			22.50		57.704E-03		#446
			25.00		54.904E-03		#410
			27.50		50.892E-03		#374
			30.00		44.869E-03		#338
			32.50		37.371E-03		#302
		END_DATA
	END_SCAN  14
	BEGIN_SCAN  15
		TASK_NAME=DOSE
		GROUP_NAME=LR_33.6
		PROGRAM=BeamAdjust 2.3.0.25
		COMMENT=G000, E221_c-dhex3.6_4
		MEAS_DATE=08-Jun-2024 21:45:57
		LINAC=HIT
		MODALITY=P
		INPLANE_AXIS_DIR=TARGET_GUN
		CROSSPLANE_AXIS_DIR=LEFT_RIGHT
		DEPTH_AXIS_DIR=UP_DOWN
		ENERGY=0.00
		SSD=0.00
		FIELD_INPLANE=50.00
		FIELD_CROSSPLANE=50.00
		FIELD_TYPE=RECTANGULAR
		GANTRY=0.00
		GANTRY_UPRIGHT_POSITION=0
		GANTRY_ROTATION=CW
		COLL_ANGLE=90.00
		SCAN_DEVICE=OCTAVIUS_1600_XDR
		ELECTROMETER=DETECTOR_INTERFACE
		ELECTROMETER_SN=5987
		DETECTOR=OCTAVIUS_1600_XDR
		DETECTOR_SN=191760
		FILTER=FF
		SCAN_CURVETYPE=CROSSPLANE_PROFILE
		SCAN_DEPTH=0.00
		SCAN_OFFAXIS_INPLANE=-20.00
		SCAN_ANGLE=0.00
		SCAN_DIAGONAL=NOT_DIAGONAL
		MEAS_PRESET=TIME_PRESET
		MEAS_TIME=33.600
		MEAS_UNIT=GY
		PRESSURE=995.30
		TEMPERATURE=19.10
		NORM_TEMPERATURE=20.00
		CORRECTION_FACTOR=1.1270
		CALIBRATION_FILE=C:\Users\Public\Documents\PTW\Common Files\Calibration Files\230554201_OCTAVIUS1600XDR_191760.cal
		CORRECTIONS=AIR_DENSITY_CORR;FACTOR_CORR;
		BEGIN_DATA
			-75.00		377.48E-06		#1510
			-70.00		454.64E-06		#1479
			-65.00		527.51E-06		#1448
			-60.00		579.90E-06		#1417
			-55.00		1.5499E-03		#1386
			-50.00		4.0644E-03		#1355
			-45.00		10.700E-03		#1324
			-40.00		23.793E-03		#1293
			-35.00		39.866E-03		#1262
			-32.50		46.512E-03		#1237
			-30.00		52.161E-03		#1201
			-27.50		55.857E-03		#1165
			-25.00		58.829E-03		#1129
			-22.50		60.264E-03		#1093
			-20.00		60.819E-03		#1057
			-17.50		61.619E-03		#1021
			-15.00		62.299E-03		#985
			-12.50		62.361E-03		#949
			-10.00		62.230E-03		#913
			-7.50		62.668E-03		#877
			-5.00		62.284E-03		#841
			-2.50		62.253E-03		#805
			0.00		61.924E-03		#769
			2.50		62.295E-03		#733
			5.00		61.926E-03		#697
			7.50		62.015E-03		#661
			10.00		62.242E-03		#625
			12.50		62.154E-03		#589
			15.00		61.668E-03		#553
			17.50		61.049E-03		#517
			20.00		60.419E-03		#481
			22.50		58.472E-03		#445
			25.00		56.157E-03		#409
			27.50		51.721E-03		#373
			30.00		45.581E-03		#337
			32.50		38.680E-03		#301
			35.00		30.406E-03		#268
			40.00		15.426E-03		#237
			45.00		6.0131E-03		#206
			50.00		2.3330E-03		#175
			55.00		1.0748E-03		#144
			60.00		662.52E-06		#113
			65.00		137.66E-06		#82
			70.00		29.351E-06		#51
			75.00		165.31E-06		#20
		END_DATA
	END_SCAN  15
	BEGIN_SCAN  16
		TASK_NAME=DOSE
		GROUP_NAME=LR_33.6
		PROGRAM=BeamAdjust 2.3.0.25
