BEGIN_SCAN_DATA
	FORMAT=CC-Export V1.9                  
	FILE_CREATION_DATE=24-Jun-2024 16:14:35
	LAST_MODIFIED=24-Jun-2024 16:14:35
	BEGIN_SCAN  1
		TASK_NAME=DOSE
		GROUP_NAME=LR_36.8
		PROGRAM=BeamAdjust 2.3.0.25
		COMMENT=G000, E221_c-dhex3.6_4
		MEAS_DATE=08-Jun-2024 21:43:21
		LINAC=HIT
		MODALITY=P
		INPLANE_AXIS_DIR=TARGET_GUN
		CROSSPLANE_AXIS_DIR=LEFT_RIGHT
		DEPTH_AXIS_DIR=UP_DOWN
		ENERGY=0.00
		SSD=0.00
		FIELD_INPLANE=50.00
		FIELD_CROSSPLANE=50.00
		FIELD_TYPE=RECTANGULAR
		GANTRY=0.00
		GANTRY_UPRIGHT_POSITION=0
		GANTRY_ROTATION=CW
		COLL_ANGLE=90.00
		SCAN_DEVICE=OCTAVIUS_1600_XDR
		ELECTROMETER=DETECTOR_INTERFACE
		ELECTROMETER_SN=5987
		DETECTOR=OCTAVIUS_1600_XDR
		DETECTOR_SN=191760
		FILTER=FF
		SCAN_CURVETYPE=CROSSPLANE_PROFILE
		SCAN_DEPTH=0.00
		SCAN_OFFAXIS_INPLANE=-75.00
		SCAN_ANGLE=0.00
		SCAN_DIAGONAL=NOT_DIAGONAL
		MEAS_PRESET=TIME_PRESET
		MEAS_TIME=36.800
		MEAS_UNIT=GY
		PRESSURE=995.30
		TEMPERATURE=19.10
		NORM_TEMPERATURE=20.00
		CORRECTION_FACTOR=1.1270
		CALIBRATION_FILE=C:\Users\Public\Documents\PTW\Common Files\Calibration Files\230554201_OCTAVIUS1600XDR_191760.cal
		CORRECTIONS=AIR_DENSITY_CORR;FACTOR_CORR;INTERPOLATED_CORR;
		BEGIN_DATA
			-75.00		519.31E-06
			-72.50		453.95E-06
			-70.00		388.60E-06
			-67.50		583.52E-06
			-65.00		778.44E-06
			-62.50		891.42E-06
			-60.00		1.0044E-03
			-57.50		1.2042E-03
			-55.00		1.4039E-03
			-52.50		1.5342E-03
			-50.00		1.6645E-03
			-47.50		1.8111E-03
			-45.00		1.9577E-03
			-42.50		2.0270E-03
			-40.00		2.0962E-03
			-37.50		2.1238E-03
			-35.00		2.1515E-03
			-32.50		2.2542E-03
			-30.00		2.3569E-03
			-27.50		2.3725E-03
			-25.00		2.3882E-03
			-22.50		2.2742E-03
			-20.00		2.1602E-03
			-17.50		2.2676E-03
			-15.00		2.3751E-03
			-12.50		2.2739E-03
			-10.00		2.1727E-03
			-7.50		2.1735E-03
			-5.00		2.1744E-03
			-2.50		2.1593E-03
			0.00		2.1442E-03
			2.50		2.1687E-03
			5.00		2.1933E-03
			7.50		2.1766E-03
			10.00		2.1599E-03
			12.50		2.3356E-03
			15.00		2.5114E-03
			17.50		2.2665E-03
			20.00		2.0217E-03
			22.50		2.2118E-03
			25.00		2.4020E-03
			27.50		2.0433E-03
			30.00		1.6846E-03
			32.50		2.0793E-03
			35.00		2.4740E-03
			37.50		2.4920E-03
			40.00		2.5101E-03
			42.50		2.2427E-03
			45.00		1.9753E-03
			47.50		1.8505E-03
			50.00		1.7257E-03
			52.50		1.7098E-03
			55.00		1.6939E-03
			57.50		1.3721E-03
			60.00		1.0502E-03
			62.50		947.90E-06
			65.00		845.60E-06
			67.50		827.61E-06
			70.00		809.62E-06
			72.50		489.62E-06
			75.00		169.62E-06
		END_DATA
	END_SCAN  1
	BEGIN_SCAN  2
		TASK_NAME=DOSE
		GROUP_NAME=LR_36.8
		PROGRAM=BeamAdjust 2.3.0.25
		COMMENT=G000, E221_c-dhex3.6_4
		MEAS_DATE=08-Jun-2024 21:43:21
		LINAC=HIT
		MODALITY=P
		INPLANE_AXIS_DIR=TARGET_GUN
		CROSSPLANE_AXIS_DIR=LEFT_RIGHT
		DEPTH_AXIS_DIR=UP_DOWN
		ENERGY=0.00
		SSD=0.00
		FIELD_INPLANE=50.00
		FIELD_CROSSPLANE=50.00
		FIELD_TYPE=RECTANGULAR
		GANTRY=0.00
		GANTRY_UPRIGHT_POSITION=0
		GANTRY_ROTATION=CW
		COLL_ANGLE=90.00
		SCAN_DEVICE=OCTAVIUS_1600_XDR
		ELECTROMETER=DETECTOR_INTERFACE
		ELECTROMETER_SN=5987
		DETECTOR=OCTAVIUS_1600_XDR
		DETECTOR_SN=191760
		FILTER=FF
		SCAN_CURVETYPE=CROSSPLANE_PROFILE
		SCAN_DEPTH=0.00
		SCAN_OFFAXIS_INPLANE=-72.50
		SCAN_ANGLE=0.00
		SCAN_DIAGONAL=NOT_DIAGONAL
		MEAS_PRESET=TIME_PRESET
		MEAS_TIME=36.800
		MEAS_UNIT=GY
		PRESSURE=995.30
		TEMPERATURE=19.10
		NORM_TEMPERATURE=20.00
		CORRECTION_FACTOR=1.1270
		CALIBRATION_FILE=C:\Users\Public\Documents\PTW\Common Files\Calibration Files\230554201_OCTAVIUS1600XDR_191760.cal
		CORRECTIONS=AIR_DENSITY_CORR;FACTOR_CORR;INTERPOLATED_CORR;
		BEGIN_DATA
			-75.00		551.40E-06
			-72.50		641.40E-06
			-70.00		731.40E-06
			-67.50		957.84E-06
			-65.00		1.1843E-03
			-62.50		1.5245E-03
			-60.00		1.8647E-03
			-57.50		2.2766E-03
			-55.00		2.6885E-03
			-52.50		2.9673E-03
			-50.00		3.2460E-03
			-47.50		3.5818E-03
			-45.00		3.9177E-03
			-42.50		3.9201E-03
			-40.00		3.9224E-03
			-37.50		4.0415E-03
			-35.00		4.1604E-03
			-32.50		4.1856E-03
			-30.00		4.2108E-03
			-27.50		4.1976E-03
			-25.00		4.1844E-03
			-22.50		4.1231E-03
			-20.00		4.0618E-03
			-17.50		4.0912E-03
			-15.00		4.1207E-03
			-12.50		4.1144E-03
			-10.00		4.1082E-03
			-7.50		4.2141E-03
			-5.00		4.3200E-03
			-2.50		4.2331E-03
			0.00		4.1461E-03
			2.50		4.1455E-03
			5.00		4.1449E-03
			7.50		4.1347E-03
			10.00		4.1244E-03
			12.50		4.2095E-03
			15.00		4.2947E-03
			17.50		4.1540E-03
			20.00		4.0134E-03
			22.50		4.1987E-03
			25.00		4.3839E-03
			27.50		4.1369E-03
			30.00		3.8898E-03
			32.50		4.1473E-03
			35.00		4.4048E-03
			37.50		4.3053E-03
			40.00		4.2058E-03
			42.50		4.0462E-03
			45.00		3.8866E-03
			47.50		3.7176E-03
			50.00		3.5485E-03
			52.50		3.2472E-03
			55.00		2.9458E-03
			57.50		2.5292E-03
			60.00		2.1127E-03
			62.50		1.6852E-03
			65.00		1.2577E-03
			67.50		1.0881E-03
			70.00		918.41E-06
			72.50		654.90E-06
			75.00		391.39E-06
		END_DATA
	END_SCAN  2
	BEGIN_SCAN  3
		TASK_NAME=DOSE
		GROUP_NAME=LR_36.8
		PROGRAM=BeamAdjust 2.3.0.25
		COMMENT=G000, E221_c-dhex3.6_4
		MEAS_DATE=08-Jun-2024 21:43:21
		LINAC=HIT
		MODALITY=P
		INPLANE_AXIS_DIR=TARGET_GUN
		CROSSPLANE_AXIS_DIR=LEFT_RIGHT
		DEPTH_AXIS_DIR=UP_DOWN
		ENERGY=0.00
		SSD=0.00
		FIELD_INPLANE=50.00
		FIELD_CROSSPLANE=50.00
		FIELD_TYPE=RECTANGULAR
		GANTRY=0.00
		GANTRY_UPRIGHT_POSITION=0
		GANTRY_ROTATION=CW
		COLL_ANGLE=90.00
		SCAN_DEVICE=OCTAVIUS_1600_XDR
		ELECTROMETER=DETECTOR_INTERFACE
		ELECTROMETER_SN=5987
		DETECTOR=OCTAVIUS_1600_XDR
		DETECTOR_SN=191760
		FILTER=FF
		SCAN_CURVETYPE=CROSSPLANE_PROFILE
		SCAN_DEPTH=0.00
		SCAN_OFFAXIS_INPLANE=-70.00
		SCAN_ANGLE=0.00
		SCAN_DIAGONAL=NOT_DIAGONAL
		MEAS_PRESET=TIME_PRESET
		MEAS_TIME=36.800
		MEAS_UNIT=GY
		PRESSURE=995.30
		TEMPERATURE=19.10
		NORM_TEMPERATURE=20.00
		CORRECTION_FACTOR=1.1270
		CALIBRATION_FILE=C:\Users\Public\Documents\PTW\Common Files\Calibration Files\230554201_OCTAVIUS1600XDR_191760.cal
		CORRECTIONS=AIR_DENSITY_CORR;FACTOR_CORR;INTERPOLATED_CORR;
		BEGIN_DATA
			-75.00		583.49E-06
			-72.50		828.85E-06
			-70.00		1.0742E-03
			-67.50		1.3322E-03
			-65.00		1.5901E-03
			-62.50		2.1576E-03
			-60.00		2.7250E-03
			-57.50		3.3490E-03
			-55.00		3.9731E-03
			-52.50		4.4003E-03
			-50.00		4.8275E-03
			-47.50		5.3526E-03
			-45.00		5.8777E-03
			-42.50		5.8132E-03
			-40.00		5.7487E-03
			-37.50		5.9590E-03
			-35.00		6.1694E-03
			-32.50		6.1171E-03
			-30.00		6.0647E-03
			-27.50		6.0226E-03
			-25.00		5.9806E-03
			-22.50		5.9720E-03
			-20.00		5.9633E-03
			-17.50		5.9149E-03
			-15.00		5.8664E-03
			-12.50		5.9550E-03
			-10.00		6.0436E-03
			-7.50		6.2546E-03
			-5.00		6.4656E-03
			-2.50		6.3068E-03
			0.00		6.1480E-03
			2.50		6.1223E-03
			5.00		6.0966E-03
			7.50		6.0928E-03
			10.00		6.0889E-03
			12.50		6.0834E-03
			15.00		6.0779E-03
			17.50		6.0416E-03
			20.00		6.0052E-03
			22.50		6.1855E-03
			25.00		6.3658E-03
			27.50		6.2304E-03
			30.00		6.0950E-03
			32.50		6.2153E-03
			35.00		6.3355E-03
			37.50		6.1185E-03
			40.00		5.9016E-03
			42.50		5.8497E-03
			45.00		5.7979E-03
			47.50		5.5846E-03
			50.00		5.3714E-03
			52.50		4.7845E-03
			55.00		4.1976E-03
			57.50		3.6864E-03
			60.00		3.1752E-03
			62.50		2.4225E-03
			65.00		1.6698E-03
			67.50		1.3485E-03
			70.00		1.0272E-03
			72.50		820.18E-06
			75.00		613.16E-06
		END_DATA
	END_SCAN  3
	BEGIN_SCAN  4
		TASK_NAME=DOSE
		GROUP_NAME=LR_36.8
		PROGRAM=BeamAdjust 2.3.0.25
		COMMENT=G000, E221_c-dhex3.6_4
		MEAS_DATE=08-Jun-2024 21:43:21
		LINAC=HIT
		MODALITY=P
		INPLANE_AXIS_DIR=TARGET_GUN
		CROSSPLANE_AXIS_DIR=LEFT_RIGHT
		DEPTH_AXIS_DIR=UP_DOWN
		ENERGY=0.00
		SSD=0.00
		FIELD_INPLANE=50.00
		FIELD_CROSSPLANE=50.00
		FIELD_TYPE=RECTANGULAR
		GANTRY=0.00
		GANTRY_UPRIGHT_POSITION=0
		GANTRY_ROTATION=CW
		COLL_ANGLE=90.00
		SCAN_DEVICE=OCTAVIUS_1600_XDR
		ELECTROMETER=DETECTOR_INTERFACE
		ELECTROMETER_SN=5987
		DETECTOR=OCTAVIUS_1600_XDR
		DETECTOR_SN=191760
		FILTER=FF
		SCAN_CURVETYPE=CROSSPLANE_PROFILE
		SCAN_DEPTH=0.00
		SCAN_OFFAXIS_INPLANE=-67.50
		SCAN_ANGLE=0.00
		SCAN_DIAGONAL=NOT_DIAGONAL
		MEAS_PRESET=TIME_PRESET
		MEAS_TIME=36.800
		MEAS_UNIT=GY
		PRESSURE=995.30
		TEMPERATURE=19.10
		NORM_TEMPERATURE=20.00
		CORRECTION_FACTOR=1.1270
		CALIBRATION_FILE=C:\Users\Public\Documents\PTW\Common Files\Calibration Files\230554201_OCTAVIUS1600XDR_191760.cal
		CORRECTIONS=AIR_DENSITY_CORR;FACTOR_CORR;INTERPOLATED_CORR;
		BEGIN_DATA
			-75.00		659.04E-06
			-72.50		985.74E-06
			-70.00		1.3125E-03
			-67.50		2.0400E-03
			-65.00		2.7676E-03
			-62.50		4.0414E-03
			-60.00		5.3152E-03
			-57.50		6.9287E-03
			-55.00		8.5420E-03
			-52.50		9.6494E-03
			-50.00		10.757E-03
			-47.50		11.383E-03
			-45.00		12.008E-03
			-42.50		12.118E-03
			-40.00		12.227E-03
			-37.50		12.405E-03
			-35.00		12.583E-03
			-32.50		12.491E-03
			-30.00		12.399E-03
			-27.50		12.370E-03
			-25.00		12.341E-03
			-22.50		12.398E-03
			-20.00		12.456E-03
			-17.50		12.504E-03
			-15.00		12.552E-03
			-12.50		12.595E-03
			-10.00		12.638E-03
			-7.50		12.707E-03
			-5.00		12.775E-03
			-2.50		12.710E-03
			0.00		12.646E-03
			2.50		12.636E-03
			5.00		12.626E-03
			7.50		12.650E-03
			10.00		12.673E-03
			12.50		12.627E-03
			15.00		12.580E-03
			17.50		12.559E-03
			20.00		12.538E-03
			22.50		12.784E-03
			25.00		13.031E-03
			27.50		12.892E-03
			30.00		12.752E-03
			32.50		12.883E-03
			35.00		13.014E-03
			37.50		12.806E-03
			40.00		12.598E-03
			42.50		12.614E-03
			45.00		12.629E-03
			47.50		12.054E-03
			50.00		11.478E-03
			52.50		10.262E-03
			55.00		9.0468E-03
			57.50		7.4012E-03
			60.00		5.7556E-03
			62.50		4.2927E-03
			65.00		2.8297E-03
			67.50		2.0948E-03
			70.00		1.3598E-03
			72.50		1.0205E-03
			75.00		681.21E-06
		END_DATA
	END_SCAN  4
	BEGIN_SCAN  5
		TASK_NAME=DOSE
		GROUP_NAME=LR_36.8
		PROGRAM=BeamAdjust 2.3.0.25
		COMMENT=G000, E221_c-dhex3.6_4
		MEAS_DATE=08-Jun-2024 21:43:21
		LINAC=HIT
		MODALITY=P
		INPLANE_AXIS_DIR=TARGET_GUN
		CROSSPLANE_AXIS_DIR=LEFT_RIGHT
		DEPTH_AXIS_DIR=UP_DOWN
		ENERGY=0.00
		SSD=0.00
		FIELD_INPLANE=50.00
		FIELD_CROSSPLANE=50.00
		FIELD_TYPE=RECTANGULAR
		GANTRY=0.00
		GANTRY_UPRIGHT_POSITION=0
		GANTRY_ROTATION=CW
		COLL_ANGLE=90.00
		SCAN_DEVICE=OCTAVIUS_1600_XDR
		ELECTROMETER=DETECTOR_INTERFACE
		ELECTROMETER_SN=5987
		DETECTOR=OCTAVIUS_1600_XDR
		DETECTOR_SN=191760
		FILTER=FF
		SCAN_CURVETYPE=CROSSPLANE_PROFILE
		SCAN_DEPTH=0.00
		SCAN_OFFAXIS_INPLANE=-65.00
		SCAN_ANGLE=0.00
		SCAN_DIAGONAL=NOT_DIAGONAL
		MEAS_PRESET=TIME_PRESET
		MEAS_TIME=36.800
		MEAS_UNIT=GY
		PRESSURE=995.30
		TEMPERATURE=19.10
		NORM_TEMPERATURE=20.00
		CORRECTION_FACTOR=1.1270
		CALIBRATION_FILE=C:\Users\Public\Documents\PTW\Common Files\Calibration Files\230554201_OCTAVIUS1600XDR_191760.cal
		CORRECTIONS=AIR_DENSITY_CORR;FACTOR_CORR;INTERPOLATED_CORR;
		BEGIN_DATA
			-75.00		734.59E-06
			-72.50		1.1426E-03
			-70.00		1.5507E-03
			-67.50		2.7479E-03
			-65.00		3.9450E-03
			-62.50		5.9253E-03
			-60.00		7.9055E-03
			-57.50		10.508E-03
			-55.00		13.111E-03
			-52.50		14.898E-03
			-50.00		16.686E-03
			-47.50		17.412E-03
			-45.00		18.139E-03
			-42.50		18.422E-03
			-40.00		18.706E-03
			-37.50		18.852E-03
			-35.00		18.997E-03
			-32.50		18.865E-03
			-30.00		18.734E-03
			-27.50		18.718E-03
			-25.00		18.702E-03
			-22.50		18.825E-03
			-20.00		18.948E-03
			-17.50		19.093E-03
			-15.00		19.238E-03
			-12.50		19.235E-03
			-10.00		19.233E-03
			-7.50		19.158E-03
			-5.00		19.084E-03
			-2.50		19.114E-03
			0.00		19.144E-03
			2.50		19.150E-03
			5.00		19.156E-03
			7.50		19.206E-03
			10.00		19.257E-03
			12.50		19.170E-03
			15.00		19.083E-03
			17.50		19.077E-03
			20.00		19.070E-03
			22.50		19.383E-03
			25.00		19.697E-03
			27.50		19.553E-03
			30.00		19.410E-03
			32.50		19.551E-03
			35.00		19.692E-03
			37.50		19.493E-03
			40.00		19.295E-03
			42.50		19.378E-03
			45.00		19.461E-03
			47.50		18.523E-03
			50.00		17.584E-03
			52.50		15.740E-03
			55.00		13.896E-03
			57.50		11.116E-03
			60.00		8.3360E-03
			62.50		6.1628E-03
			65.00		3.9896E-03
			67.50		2.8410E-03
			70.00		1.6924E-03
			72.50		1.2208E-03
			75.00		749.26E-06
		END_DATA
	END_SCAN  5
	BEGIN_SCAN  6
		TASK_NAME=DOSE
		GROUP_NAME=LR_36.8
		PROGRAM=BeamAdjust 2.3.0.25
		COMMENT=G000, E221_c-dhex3.6_4
		MEAS_DATE=08-Jun-2024 21:43:21
		LINAC=HIT
		MODALITY=P
		INPLANE_AXIS_DIR=TARGET_GUN
		CROSSPLANE_AXIS_DIR=LEFT_RIGHT
		DEPTH_AXIS_DIR=UP_DOWN
		ENERGY=0.00
		SSD=0.00
		FIELD_INPLANE=50.00
		FIELD_CROSSPLANE=50.00
		FIELD_TYPE=RECTANGULAR
		GANTRY=0.00
		GANTRY_UPRIGHT_POSITION=0
		GANTRY_ROTATION=CW
		COLL_ANGLE=90.00
		SCAN_DEVICE=OCTAVIUS_1600_XDR
		ELECTROMETER=DETECTOR_INTERFACE
		ELECTROMETER_SN=5987
		DETECTOR=OCTAVIUS_1600_XDR
		DETECTOR_SN=191760
		FILTER=FF
		SCAN_CURVETYPE=CROSSPLANE_PROFILE
		SCAN_DEPTH=0.00
		SCAN_OFFAXIS_INPLANE=-62.50
		SCAN_ANGLE=0.00
		SCAN_DIAGONAL=NOT_DIAGONAL
		MEAS_PRESET=TIME_PRESET
		MEAS_TIME=36.800
		MEAS_UNIT=GY
		PRESSURE=995.30
		TEMPERATURE=19.10
		NORM_TEMPERATURE=20.00
		CORRECTION_FACTOR=1.1270
		CALIBRATION_FILE=C:\Users\Public\Documents\PTW\Common Files\Calibration Files\230554201_OCTAVIUS1600XDR_191760.cal
		CORRECTIONS=AIR_DENSITY_CORR;FACTOR_CORR;INTERPOLATED_CORR;
		BEGIN_DATA
			-75.00		1.0664E-03
			-72.50		1.6917E-03
			-70.00		2.3170E-03
			-67.50		4.4211E-03
			-65.00		6.5253E-03
			-62.50		10.523E-03
			-60.00		14.521E-03
			-57.50		19.752E-03
			-55.00		24.983E-03
			-52.50		28.253E-03
			-50.00		31.523E-03
			-47.50		32.701E-03
			-45.00		33.878E-03
			-42.50		34.424E-03
			-40.00		34.968E-03
			-37.50		34.982E-03
			-35.00		34.995E-03
			-32.50		34.968E-03
			-30.00		34.941E-03
			-27.50		34.936E-03
			-25.00		34.931E-03
			-22.50		35.016E-03
			-20.00		35.101E-03
			-17.50		35.183E-03
			-15.00		35.264E-03
			-12.50		35.391E-03
			-10.00		35.518E-03
			-7.50		35.440E-03
			-5.00		35.361E-03
			-2.50		35.325E-03
			0.00		35.289E-03
			2.50		35.342E-03
			5.00		35.394E-03
			7.50		35.495E-03
			10.00		35.597E-03
			12.50		35.512E-03
			15.00		35.429E-03
			17.50		35.526E-03
			20.00		35.623E-03
			22.50		35.767E-03
			25.00		35.911E-03
			27.50		35.984E-03
			30.00		36.057E-03
			32.50		36.004E-03
			35.00		35.951E-03
			37.50		35.914E-03
			40.00		35.877E-03
			42.50		35.593E-03
			45.00		35.309E-03
			47.50		34.152E-03
			50.00		32.995E-03
			52.50		29.650E-03
			55.00		26.305E-03
			57.50		20.922E-03
			60.00		15.539E-03
			62.50		11.171E-03
			65.00		6.8028E-03
			67.50		4.6393E-03
			70.00		2.4757E-03
			72.50		1.8336E-03
			75.00		1.1915E-03
		END_DATA
	END_SCAN  6
	BEGIN_SCAN  7
		TASK_NAME=DOSE
		GROUP_NAME=LR_36.8
		PROGRAM=BeamAdjust 2.3.0.25
		COMMENT=G000, E221_c-dhex3.6_4
		MEAS_DATE=08-Jun-2024 21:43:21
		LINAC=HIT
		MODALITY=P
		INPLANE_AXIS_DIR=TARGET_GUN
		CROSSPLANE_AXIS_DIR=LEFT_RIGHT
		DEPTH_AXIS_DIR=UP_DOWN
		ENERGY=0.00
		SSD=0.00
		FIELD_INPLANE=50.00
		FIELD_CROSSPLANE=50.00
		FIELD_TYPE=RECTANGULAR
		GANTRY=0.00
		GANTRY_UPRIGHT_POSITION=0
		GANTRY_ROTATION=CW
		COLL_ANGLE=90.00
		SCAN_DEVICE=OCTAVIUS_1600_XDR
		ELECTROMETER=DETECTOR_INTERFACE
		ELECTROMETER_SN=5987
		DETECTOR=OCTAVIUS_1600_XDR
		DETECTOR_SN=191760
		FILTER=FF
		SCAN_CURVETYPE=CROSSPLANE_PROFILE
		SCAN_DEPTH=0.00
		SCAN_OFFAXIS_INPLANE=-60.00
		SCAN_ANGLE=0.00
		SCAN_DIAGONAL=NOT_DIAGONAL
		MEAS_PRESET=TIME_PRESET
		MEAS_TIME=36.800
		MEAS_UNIT=GY
		PRESSURE=995.30
		TEMPERATURE=19.10
		NORM_TEMPERATURE=20.00
		CORRECTION_FACTOR=1.1270
		CALIBRATION_FILE=C:\Users\Public\Documents\PTW\Common Files\Calibration Files\230554201_OCTAVIUS1600XDR_191760.cal
		CORRECTIONS=AIR_DENSITY_CORR;FACTOR_CORR;INTERPOLATED_CORR;
		BEGIN_DATA
			-75.00		1.3982E-03
			-72.50		2.2408E-03
			-70.00		3.0833E-03
			-67.50		6.0944E-03
			-65.00		9.1055E-03
			-62.50		15.121E-03
			-60.00		21.137E-03
			-57.50		28.996E-03
			-55.00		36.856E-03
			-52.50		41.608E-03
			-50.00		46.361E-03
			-47.50		47.989E-03
			-45.00		49.618E-03
			-42.50		50.425E-03
			-40.00		51.231E-03
			-37.50		51.113E-03
			-35.00		50.994E-03
			-32.50		51.071E-03
			-30.00		51.148E-03
			-27.50		51.155E-03
			-25.00		51.161E-03
			-22.50		51.207E-03
			-20.00		51.254E-03
			-17.50		51.273E-03
			-15.00		51.291E-03
			-12.50		51.547E-03
			-10.00		51.804E-03
			-7.50		51.721E-03
			-5.00		51.638E-03
			-2.50		51.537E-03
			0.00		51.435E-03
			2.50		51.533E-03
			5.00		51.632E-03
			7.50		51.784E-03
			10.00		51.936E-03
			12.50		51.855E-03
			15.00		51.774E-03
			17.50		51.975E-03
			20.00		52.177E-03
			22.50		52.151E-03
			25.00		52.124E-03
			27.50		52.414E-03
			30.00		52.704E-03
			32.50		52.457E-03
			35.00		52.210E-03
			37.50		52.335E-03
			40.00		52.459E-03
			42.50		51.808E-03
			45.00		51.157E-03
			47.50		49.782E-03
			50.00		48.407E-03
			52.50		43.560E-03
			55.00		38.714E-03
			57.50		30.729E-03
			60.00		22.743E-03
			62.50		16.180E-03
			65.00		9.6160E-03
			67.50		6.4375E-03
			70.00		3.2590E-03
			72.50		2.4463E-03
			75.00		1.6337E-03
		END_DATA
	END_SCAN  7
	BEGIN_SCAN  8
		TASK_NAME=DOSE
		GROUP_NAME=LR_36.8
		PROGRAM=BeamAdjust 2.3.0.25
		COMMENT=G000, E221_c-dhex3.6_4
		MEAS_DATE=08-Jun-2024 21:43:21
		LINAC=HIT
		MODALITY=P
		INPLANE_AXIS_DIR=TARGET_GUN
		CROSSPLANE_AXIS_DIR=LEFT_RIGHT
		DEPTH_AXIS_DIR=UP_DOWN
		ENERGY=0.00
		SSD=0.00
		FIELD_INPLANE=50.00
		FIELD_CROSSPLANE=50.00
		FIELD_TYPE=RECTANGULAR
		GANTRY=0.00
		GANTRY_UPRIGHT_POSITION=0
		GANTRY_ROTATION=CW
		COLL_ANGLE=90.00
		SCAN_DEVICE=OCTAVIUS_1600_XDR
		ELECTROMETER=DETECTOR_INTERFACE
		ELECTROMETER_SN=5987
		DETECTOR=OCTAVIUS_1600_XDR
		DETECTOR_SN=191760
		FILTER=FF
		SCAN_CURVETYPE=CROSSPLANE_PROFILE
		SCAN_DEPTH=0.00
		SCAN_OFFAXIS_INPLANE=-57.50
		SCAN_ANGLE=0.00
		SCAN_DIAGONAL=NOT_DIAGONAL
		MEAS_PRESET=TIME_PRESET
		MEAS_TIME=36.800
		MEAS_UNIT=GY
		PRESSURE=995.30
		TEMPERATURE=19.10
		NORM_TEMPERATURE=20.00
		CORRECTION_FACTOR=1.1270
		CALIBRATION_FILE=C:\Users\Public\Documents\PTW\Common Files\Calibration Files\230554201_OCTAVIUS1600XDR_191760.cal
		CORRECTIONS=AIR_DENSITY_CORR;FACTOR_CORR;INTERPOLATED_CORR;
		BEGIN_DATA
			-75.00		1.5371E-03
			-72.50		2.8524E-03
			-70.00		4.1676E-03
			-67.50		8.3684E-03
			-65.00		12.569E-03
			-62.50		21.657E-03
			-60.00		30.744E-03
			-57.50		41.787E-03
			-55.00		52.831E-03
			-52.50		59.538E-03
			-50.00		66.246E-03
			-47.50		68.505E-03
			-45.00		70.764E-03
			-42.50		71.485E-03
			-40.00		72.206E-03
			-37.50		72.252E-03
			-35.00		72.298E-03
			-32.50		72.297E-03
			-30.00		72.297E-03
			-27.50		72.213E-03
			-25.00		72.128E-03
			-22.50		72.105E-03
			-20.00		72.082E-03
			-17.50		72.229E-03
			-15.00		72.375E-03
			-12.50		72.544E-03
			-10.00		72.713E-03
			-7.50		72.572E-03
			-5.00		72.430E-03
			-2.50		72.412E-03
			0.00		72.393E-03
			2.50		72.413E-03
			5.00		72.432E-03
			7.50		72.581E-03
			10.00		72.730E-03
			12.50		72.641E-03
			15.00		72.550E-03
			17.50		72.866E-03
			20.00		73.180E-03
			22.50		73.155E-03
			25.00		73.130E-03
			27.50		73.362E-03
			30.00		73.594E-03
			32.50		73.643E-03
			35.00		73.693E-03
			37.50		73.475E-03
			40.00		73.258E-03
			42.50		72.811E-03
			45.00		72.364E-03
			47.50		70.114E-03
			50.00		67.864E-03
			52.50		61.153E-03
			55.00		54.442E-03
			57.50		43.152E-03
			60.00		31.862E-03
			62.50		22.404E-03
			65.00		12.947E-03
			67.50		8.5612E-03
			70.00		4.1753E-03
			72.50		2.8663E-03
			75.00		1.5573E-03
		END_DATA
	END_SCAN  8
	BEGIN_SCAN  9
		TASK_NAME=DOSE
		GROUP_NAME=LR_36.8
		PROGRAM=BeamAdjust 2.3.0.25
		COMMENT=G000, E221_c-dhex3.6_4
		MEAS_DATE=08-Jun-2024 21:43:21
		LINAC=HIT
		MODALITY=P
		INPLANE_AXIS_DIR=TARGET_GUN
		CROSSPLANE_AXIS_DIR=LEFT_RIGHT
		DEPTH_AXIS_DIR=UP_DOWN
		ENERGY=0.00
		SSD=0.00
		FIELD_INPLANE=50.00
		FIELD_CROSSPLANE=50.00
		FIELD_TYPE=RECTANGULAR
		GANTRY=0.00
		GANTRY_UPRIGHT_POSITION=0
		GANTRY_ROTATION=CW
		COLL_ANGLE=90.00
		SCAN_DEVICE=OCTAVIUS_1600_XDR
		ELECTROMETER=DETECTOR_INTERFACE
		ELECTROMETER_SN=5987
		DETECTOR=OCTAVIUS_1600_XDR
		DETECTOR_SN=191760
		FILTER=FF
		SCAN_CURVETYPE=CROSSPLANE_PROFILE
		SCAN_DEPTH=0.00
		SCAN_OFFAXIS_INPLANE=-55.00
		SCAN_ANGLE=0.00
		SCAN_DIAGONAL=NOT_DIAGONAL
		MEAS_PRESET=TIME_PRESET
		MEAS_TIME=36.800
		MEAS_UNIT=GY
		PRESSURE=995.30
		TEMPERATURE=19.10
		NORM_TEMPERATURE=20.00
		CORRECTION_FACTOR=1.1270
		CALIBRATION_FILE=C:\Users\Public\Documents\PTW\Common Files\Calibration Files\230554201_OCTAVIUS1600XDR_191760.cal
		CORRECTIONS=AIR_DENSITY_CORR;FACTOR_CORR;INTERPOLATED_CORR;
		BEGIN_DATA
			-75.00		1.6760E-03
			-72.50		3.4640E-03
			-70.00		5.2520E-03
			-67.50		10.642E-03
			-65.00		16.033E-03
			-62.50		28.192E-03
			-60.00		40.351E-03
			-57.50		54.578E-03
			-55.00		68.806E-03
			-52.50		77.468E-03
			-50.00		86.131E-03
			-47.50		89.021E-03
			-45.00		91.911E-03
			-42.50		92.546E-03
			-40.00		93.181E-03
			-37.50		93.392E-03
			-35.00		93.602E-03
			-32.50		93.524E-03
			-30.00		93.446E-03
			-27.50		93.270E-03
			-25.00		93.095E-03
			-22.50		93.002E-03
			-20.00		92.910E-03
			-17.50		93.185E-03
			-15.00		93.460E-03
			-12.50		93.541E-03
			-10.00		93.622E-03
			-7.50		93.422E-03
			-5.00		93.222E-03
			-2.50		93.287E-03
			0.00		93.352E-03
			2.50		93.292E-03
			5.00		93.232E-03
			7.50		93.378E-03
			10.00		93.525E-03
			12.50		93.426E-03
			15.00		93.327E-03
			17.50		93.755E-03
			20.00		94.184E-03
			22.50		94.159E-03
			25.00		94.135E-03
			27.50		94.310E-03
			30.00		94.484E-03
			32.50		94.829E-03
			35.00		95.175E-03
			37.50		94.616E-03
			40.00		94.056E-03
			42.50		93.814E-03
			45.00		93.571E-03
			47.50		90.446E-03
			50.00		87.321E-03
			52.50		78.746E-03
			55.00		70.171E-03
			57.50		55.576E-03
			60.00		40.981E-03
			62.50		28.630E-03
			65.00		16.278E-03
			67.50		10.685E-03
			70.00		5.0916E-03
			72.50		3.2862E-03
			75.00		1.4808E-03
		END_DATA
	END_SCAN  9
	BEGIN_SCAN  10
		TASK_NAME=DOSE
		GROUP_NAME=LR_36.8
		PROGRAM=BeamAdjust 2.3.0.25
		COMMENT=G000, E221_c-dhex3.6_4
		MEAS_DATE=08-Jun-2024 21:43:21
		LINAC=HIT
		MODALITY=P
		INPLANE_AXIS_DIR=TARGET_GUN
		CROSSPLANE_AXIS_DIR=LEFT_RIGHT
		DEPTH_AXIS_DIR=UP_DOWN
		ENERGY=0.00
		SSD=0.00
		FIELD_INPLANE=50.00
		FIELD_CROSSPLANE=50.00
		FIELD_TYPE=RECTANGULAR
		GANTRY=0.00
		GANTRY_UPRIGHT_POSITION=0
		GANTRY_ROTATION=CW
		COLL_ANGLE=90.00
		SCAN_DEVICE=OCTAVIUS_1600_XDR
		ELECTROMETER=DETECTOR_INTERFACE
		ELECTROMETER_SN=5987
		DETECTOR=OCTAVIUS_1600_XDR
		DETECTOR_SN=191760
		FILTER=FF
		SCAN_CURVETYPE=CROSSPLANE_PROFILE
		SCAN_DEPTH=0.00
		SCAN_OFFAXIS_INPLANE=-52.50
		SCAN_ANGLE=0.00
		SCAN_DIAGONAL=NOT_DIAGONAL
		MEAS_PRESET=TIME_PRESET
		MEAS_TIME=36.800
		MEAS_UNIT=GY
		PRESSURE=995.30
		TEMPERATURE=19.10
		NORM_TEMPERATURE=20.00
		CORRECTION_FACTOR=1.1270
		CALIBRATION_FILE=C:\Users\Public\Documents\PTW\Common Files\Calibration Files\230554201_OCTAVIUS1600XDR_191760.cal
		CORRECTIONS=AIR_DENSITY_CORR;FACTOR_CORR;INTERPOLATED_CORR;
		BEGIN_DATA
			-75.00		1.9862E-03
			-72.50		3.9557E-03
			-70.00		5.9251E-03
			-67.50		12.223E-03
			-65.00		18.521E-03
			-62.50		32.534E-03
			-60.00		46.545E-03
			-57.50		62.743E-03
			-55.00		78.940E-03
			-52.50		88.643E-03
			-50.00		98.346E-03
			-47.50		101.55E-03
			-45.00		104.76E-03
			-42.50		105.64E-03
			-40.00		106.53E-03
			-37.50		106.54E-03
			-35.00		106.55E-03
			-32.50		106.52E-03
			-30.00		106.48E-03
			-27.50		106.18E-03
			-25.00		105.87E-03
			-22.50		105.92E-03
			-20.00		105.97E-03
			-17.50		105.96E-03
			-15.00		105.96E-03
			-12.50		106.03E-03
			-10.00		106.09E-03
			-7.50		106.14E-03
			-5.00		106.19E-03
			-2.50		106.16E-03
			0.00		106.13E-03
			2.50		106.06E-03
			5.00		105.99E-03
			7.50		106.07E-03
			10.00		106.16E-03
			12.50		106.25E-03
			15.00		106.33E-03
			17.50		106.72E-03
			20.00		107.10E-03
			22.50		107.10E-03
			25.00		107.10E-03
			27.50		107.14E-03
			30.00		107.18E-03
			32.50		107.53E-03
			35.00		107.88E-03
			37.50		107.52E-03
			40.00		107.16E-03
			42.50		106.57E-03
			45.00		105.98E-03
			47.50		102.58E-03
			50.00		99.185E-03
			52.50		89.626E-03
			55.00		80.067E-03
			57.50		63.531E-03
			60.00		46.996E-03
			62.50		32.945E-03
			65.00		18.895E-03
			67.50		12.464E-03
			70.00		6.0329E-03
			72.50		3.8698E-03
			75.00		1.7067E-03
		END_DATA
	END_SCAN  10
	BEGIN_SCAN  11
		TASK_NAME=DOSE
		GROUP_NAME=LR_36.8
		PROGRAM=BeamAdjust 2.3.0.25
		COMMENT=G000, E221_c-dhex3.6_4
		MEAS_DATE=08-Jun-2024 21:43:21
		LINAC=HIT
		MODALITY=P
		INPLANE_AXIS_DIR=TARGET_GUN
		CROSSPLANE_AXIS_DIR=LEFT_RIGHT
		DEPTH_AXIS_DIR=UP_DOWN
		ENERGY=0.00
		SSD=0.00
		FIELD_INPLANE=50.00
		FIELD_CROSSPLANE=50.00
		FIELD_TYPE=RECTANGULAR
		GANTRY=0.00
		GANTRY_UPRIGHT_POSITION=0
		GANTRY_ROTATION=CW
		COLL_ANGLE=90.00
		SCAN_DEVICE=OCTAVIUS_1600_XDR
		ELECTROMETER=DETECTOR_INTERFACE
		ELECTROMETER_SN=5987
		DETECTOR=OCTAVIUS_1600_XDR
		DETECTOR_SN=191760
		FILTER=FF
		SCAN_CURVETYPE=CROSSPLANE_PROFILE
		SCAN_DEPTH=0.00
		SCAN_OFFAXIS_INPLANE=-50.00
		SCAN_ANGLE=0.00
		SCAN_DIAGONAL=NOT_DIAGONAL
		MEAS_PRESET=TIME_PRESET
		MEAS_TIME=36.800
		MEAS_UNIT=GY
		PRESSURE=995.30
		TEMPERATURE=19.10
		NORM_TEMPERATURE=20.00
		CORRECTION_FACTOR=1.1270
		CALIBRATION_FILE=C:\Users\Public\Documents\PTW\Common Files\Calibration Files\230554201_OCTAVIUS1600XDR_191760.cal
		CORRECTIONS=AIR_DENSITY_CORR;FACTOR_CORR;INTERPOLATED_CORR;
		BEGIN_DATA
			-75.00		2.2965E-03
			-72.50		4.4474E-03
			-70.00		6.5982E-03
			-67.50		13.804E-03
			-65.00		21.010E-03
			-62.50		36.875E-03
			-60.00		52.740E-03
			-57.50		70.908E-03
			-55.00		89.075E-03
			-52.50		99.817E-03
			-50.00		110.56E-03
			-47.50		114.08E-03
			-45.00		117.60E-03
			-42.50		118.74E-03
			-40.00		119.88E-03
			-37.50		119.69E-03
			-35.00		119.50E-03
			-32.50		119.51E-03
			-30.00		119.52E-03
			-27.50		119.08E-03
			-25.00		118.64E-03
			-22.50		118.83E-03
			-20.00		119.02E-03
			-17.50		118.74E-03
			-15.00		118.46E-03
			-12.50		118.51E-03
			-10.00		118.56E-03
			-7.50		118.86E-03
			-5.00		119.16E-03
			-2.50		119.03E-03
			0.00		118.90E-03
			2.50		118.82E-03
			5.00		118.74E-03
			7.50		118.77E-03
			10.00		118.80E-03
			12.50		119.07E-03
			15.00		119.34E-03
			17.50		119.68E-03
			20.00		120.02E-03
			22.50		120.04E-03
			25.00		120.06E-03
			27.50		119.97E-03
			30.00		119.88E-03
			32.50		120.23E-03
			35.00		120.59E-03
			37.50		120.43E-03
			40.00		120.26E-03
			42.50		119.32E-03
			45.00		118.38E-03
			47.50		114.72E-03
			50.00		111.05E-03
			52.50		100.51E-03
			55.00		89.962E-03
			57.50		71.487E-03
			60.00		53.011E-03
			62.50		37.262E-03
			65.00		21.512E-03
			67.50		14.243E-03
			70.00		6.9742E-03
			72.50		4.4533E-03
			75.00		1.9325E-03
		END_DATA
	END_SCAN  11
	BEGIN_SCAN  12
		TASK_NAME=DOSE
		GROUP_NAME=LR_36.8
		PROGRAM=BeamAdjust 2.3.0.25
		COMMENT=G000, E221_c-dhex3.6_4
		MEAS_DATE=08-Jun-2024 21:43:21
		LINAC=HIT
		MODALITY=P
		INPLANE_AXIS_DIR=TARGET_GUN
		CROSSPLANE_AXIS_DIR=LEFT_RIGHT
		DEPTH_AXIS_DIR=UP_DOWN
		ENERGY=0.00
		SSD=0.00
		FIELD_INPLANE=50.00
		FIELD_CROSSPLANE=50.00
		FIELD_TYPE=RECTANGULAR
		GANTRY=0.00
		GANTRY_UPRIGHT_POSITION=0
		GANTRY_ROTATION=CW
		COLL_ANGLE=90.00
		SCAN_DEVICE=OCTAVIUS_1600_XDR
		ELECTROMETER=DETECTOR_INTERFACE
		ELECTROMETER_SN=5987
		DETECTOR=OCTAVIUS_1600_XDR
		DETECTOR_SN=191760
		FILTER=FF
		SCAN_CURVETYPE=CROSSPLANE_PROFILE
		SCAN_DEPTH=0.00
		SCAN_OFFAXIS_INPLANE=-47.50
		SCAN_ANGLE=0.00
		SCAN_DIAGONAL=NOT_DIAGONAL
		MEAS_PRESET=TIME_PRESET
		MEAS_TIME=36.800
		MEAS_UNIT=GY
		PRESSURE=995.30
		TEMPERATURE=19.10
		NORM_TEMPERATURE=20.00
		CORRECTION_FACTOR=1.1270
		CALIBRATION_FILE=C:\Users\Public\Documents\PTW\Common Files\Calibration Files\230554201_OCTAVIUS1600XDR_191760.cal
		CORRECTIONS=AIR_DENSITY_CORR;FACTOR_CORR;INTERPOLATED_CORR;
		BEGIN_DATA
			-75.00		2.4475E-03
			-72.50		4.6961E-03
			-70.00		6.9446E-03
			-67.50		14.511E-03
			-65.00		22.078E-03
			-62.50		38.398E-03
			-60.00		54.718E-03
			-57.50		73.507E-03
			-55.00		92.295E-03
			-52.50		103.47E-03
			-50.00		114.64E-03
			-47.50		118.36E-03
			-45.00		122.08E-03
			-42.50		123.04E-03
			-40.00		124.00E-03
			-37.50		123.93E-03
			-35.00		123.85E-03
			-32.50		123.70E-03
			-30.00		123.55E-03
			-27.50		123.47E-03
			-25.00		123.39E-03
			-22.50		123.10E-03
			-20.00		122.81E-03
			-17.50		122.85E-03
			-15.00		122.88E-03
			-12.50		122.73E-03
			-10.00		122.58E-03
			-7.50		122.82E-03
			-5.00		123.06E-03
			-2.50		122.99E-03
			0.00		122.93E-03
			2.50		122.97E-03
			5.00		123.02E-03
			7.50		122.98E-03
			10.00		122.93E-03
			12.50		123.07E-03
			15.00		123.21E-03
			17.50		123.56E-03
			20.00		123.91E-03
			22.50		124.03E-03
			25.00		124.15E-03
			27.50		124.18E-03
			30.00		124.21E-03
			32.50		124.32E-03
			35.00		124.43E-03
			37.50		124.42E-03
			40.00		124.40E-03
			42.50		123.56E-03
			45.00		122.72E-03
			47.50		119.04E-03
			50.00		115.36E-03
			52.50		104.14E-03
			55.00		92.915E-03
			57.50		74.057E-03
			60.00		55.200E-03
			62.50		38.818E-03
			65.00		22.436E-03
			67.50		14.878E-03
			70.00		7.3210E-03
			72.50		4.7150E-03
			75.00		2.1091E-03
		END_DATA
	END_SCAN  12
	BEGIN_SCAN  13
		TASK_NAME=DOSE
		GROUP_NAME=LR_36.8
		PROGRAM=BeamAdjust 2.3.0.25
		COMMENT=G000, E221_c-dhex3.6_4
		MEAS_DATE=08-Jun-2024 21:43:21
		LINAC=HIT
		MODALITY=P
		INPLANE_AXIS_DIR=TARGET_GUN
		CROSSPLANE_AXIS_DIR=LEFT_RIGHT
		DEPTH_AXIS_DIR=UP_DOWN
		ENERGY=0.00
		SSD=0.00
		FIELD_INPLANE=50.00
		FIELD_CROSSPLANE=50.00
		FIELD_TYPE=RECTANGULAR
		GANTRY=0.00
		GANTRY_UPRIGHT_POSITION=0
		GANTRY_ROTATION=CW
		COLL_ANGLE=90.00
		SCAN_DEVICE=OCTAVIUS_1600_XDR
		ELECTROMETER=DETECTOR_INTERFACE
		ELECTROMETER_SN=5987
		DETECTOR=OCTAVIUS_1600_XDR
		DETECTOR_SN=191760
		FILTER=FF
		SCAN_CURVETYPE=CROSSPLANE_PROFILE
		SCAN_DEPTH=0.00
		SCAN_OFFAXIS_INPLANE=-45.00
		SCAN_ANGLE=0.00
		SCAN_DIAGONAL=NOT_DIAGONAL
		MEAS_PRESET=TIME_PRESET
		MEAS_TIME=36.800
		MEAS_UNIT=GY
		PRESSURE=995.30
		TEMPERATURE=19.10
		NORM_TEMPERATURE=20.00
		CORRECTION_FACTOR=1.1270
		CALIBRATION_FILE=C:\Users\Public\Documents\PTW\Common Files\Calibration Files\230554201_OCTAVIUS1600XDR_191760.cal
		CORRECTIONS=AIR_DENSITY_CORR;FACTOR_CORR;INTERPOLATED_CORR;
		BEGIN_DATA
			-75.00		2.5986E-03
			-72.50		4.9448E-03
			-70.00		7.2909E-03
