BEGIN_SCAN_DATA
	FORMAT=CC-Export V1.9                  
	FILE_CREATION_DATE=08-Jun-2024 21:54:04
	LAST_MODIFIED=08-Jun-2024 21:54:04
	BEGIN_SCAN  1
		TASK_NAME=DOSE
		GROUP_NAME=LR_37.6
		PROGRAM=BeamAdjust 2.3.0.25
		COMMENT=G000, E221_c-dhex3.6_4
		MEAS_DATE=08-Jun-2024 21:53:55
		LINAC=HIT
		MODALITY=P
		INPLANE_AXIS_DIR=TARGET_GUN
		CROSSPLANE_AXIS_DIR=LEFT_RIGHT
		DEPTH_AXIS_DIR=UP_DOWN
		ENERGY=0.00
		SSD=0.00
		FIELD_INPLANE=50.00
		FIELD_CROSSPLANE=50.00
		FIELD_TYPE=RECTANGULAR
		GANTRY=0.00
		GANTRY_UPRIGHT_POSITION=0
		GANTRY_ROTATION=CW
		COLL_ANGLE=90.00
		SCAN_DEVICE=OCTAVIUS_1600_XDR
		ELECTROMETER=DETECTOR_INTERFACE
		ELECTROMETER_SN=5987
		DETECTOR=OCTAVIUS_1600_XDR
		DETECTOR_SN=191760
		FILTER=FF
		SCAN_CURVETYPE=CROSSPLANE_PROFILE
		SCAN_DEPTH=0.00
		SCAN_OFFAXIS_INPLANE=-75.00
		SCAN_ANGLE=0.00
		SCAN_DIAGONAL=NOT_DIAGONAL
		MEAS_PRESET=TIME_PRESET
		MEAS_TIME=37.600
		MEAS_UNIT=GY
		PRESSURE=995.30
		TEMPERATURE=19.10
		NORM_TEMPERATURE=20.00
		CORRECTION_FACTOR=1.1270
		CALIBRATION_FILE=C:\Users\Public\Documents\PTW\Common Files\Calibration Files\230554201_OCTAVIUS1600XDR_191760.cal
		CORRECTIONS=AIR_DENSITY_CORR;FACTOR_CORR;
		BEGIN_DATA
			-75.00		92.561E-06		#1521
			-70.00		-44.322E-06		#1490
			-65.00		38.369E-06		#1459
			-60.00		-84.501E-06		#1428
			-55.00		70.608E-06		#1397
			-50.00		-59.961E-06		#1366
			-45.00		-28.813E-06		#1335
			-40.00		-21.219E-06		#1304
			-35.00		-31.850E-06		#1273
			-30.00		104.26E-06		#1215
			-25.00		353.31E-06		#1143
			-20.00		-27.584E-06		#1071
			-15.00		185.71E-06		#999
			-10.00		130.97E-06		#927
			-5.00		92.754E-06		#855
			0.00		59.759E-06		#783
			5.00		114.08E-06		#711
			10.00		120.64E-06		#639
			15.00		145.67E-06		#567
			20.00		136.52E-06		#495
			25.00		297.75E-06		#423
			30.00		-261.38E-06		#351
			35.00		299.42E-06		#279
			40.00		470.97E-06		#248
			45.00		55.555E-06		#217
			50.00		-146.88E-06		#186
			55.00		54.930E-06		#155
			60.00		-110.92E-06		#124
			65.00		227.41E-06		#93
			70.00		140.92E-06		#62
			75.00		-185.04E-06		#31
		END_DATA
	END_SCAN  1
	BEGIN_SCAN  2
		TASK_NAME=DOSE
		GROUP_NAME=LR_37.6
		PROGRAM=BeamAdjust 2.3.0.25
		COMMENT=G000, E221_c-dhex3.6_4
		MEAS_DATE=08-Jun-2024 21:53:55
		LINAC=HIT
		MODALITY=P
		INPLANE_AXIS_DIR=TARGET_GUN
		CROSSPLANE_AXIS_DIR=LEFT_RIGHT
		DEPTH_AXIS_DIR=UP_DOWN
		ENERGY=0.00
		SSD=0.00
		FIELD_INPLANE=50.00
		FIELD_CROSSPLANE=50.00
		FIELD_TYPE=RECTANGULAR
		GANTRY=0.00
		GANTRY_UPRIGHT_POSITION=0
		GANTRY_ROTATION=CW
		COLL_ANGLE=90.00
		SCAN_DEVICE=OCTAVIUS_1600_XDR
		ELECTROMETER=DETECTOR_INTERFACE
		ELECTROMETER_SN=5987
		DETECTOR=OCTAVIUS_1600_XDR
		DETECTOR_SN=191760
		FILTER=FF
		SCAN_CURVETYPE=CROSSPLANE_PROFILE
		SCAN_DEPTH=0.00
		SCAN_OFFAXIS_INPLANE=-70.00
		SCAN_ANGLE=0.00
		SCAN_DIAGONAL=NOT_DIAGONAL
		MEAS_PRESET=TIME_PRESET
		MEAS_TIME=37.600
		MEAS_UNIT=GY
		PRESSURE=995.30
		TEMPERATURE=19.10
		NORM_TEMPERATURE=20.00
		CORRECTION_FACTOR=1.1270
		CALIBRATION_FILE=C:\Users\Public\Documents\PTW\Common Files\Calibration Files\230554201_OCTAVIUS1600XDR_191760.cal
		CORRECTIONS=AIR_DENSITY_CORR;FACTOR_CORR;
		BEGIN_DATA
			-75.00		215.80E-06		#1520
			-70.00		142.02E-06		#1489
			-65.00		31.604E-06		#1458
			-60.00		-81.491E-06		#1427
			-55.00		-26.161E-06		#1396
			-50.00		-72.417E-06		#1365
			-45.00		466.40E-06		#1334
			-40.00		15.687E-06		#1303
			-35.00		325.35E-06		#1272
			-30.00		103.27E-06		#1214
			-25.00		8.2598E-06		#1142
			-20.00		-141.24E-06		#1070
			-15.00		-12.997E-06		#998
			-10.00		185.58E-06		#926
			-5.00		553.37E-06		#854
			0.00		162.35E-06		#782
			5.00		272.44E-06		#710
			10.00		186.19E-06		#638
			15.00		202.49E-06		#566
			20.00		-207.45E-06		#494
			25.00		319.30E-06		#422
			30.00		328.53E-06		#350
			35.00		234.82E-06		#278
			40.00		-35.031E-06		#247
			45.00		-31.338E-06		#216
			50.00		261.76E-06		#185
			55.00		3.4379E-06		#154
			60.00		182.32E-06		#123
			65.00		-125.82E-06		#92
			70.00		85.187E-06		#61
			75.00		276.11E-06		#30
		END_DATA
	END_SCAN  2
	BEGIN_SCAN  3
		TASK_NAME=DOSE
		GROUP_NAME=LR_37.6
		PROGRAM=BeamAdjust 2.3.0.25
		COMMENT=G000, E221_c-dhex3.6_4
		MEAS_DATE=08-Jun-2024 21:53:55
		LINAC=HIT
		MODALITY=P
		INPLANE_AXIS_DIR=TARGET_GUN
		CROSSPLANE_AXIS_DIR=LEFT_RIGHT
		DEPTH_AXIS_DIR=UP_DOWN
		ENERGY=0.00
		SSD=0.00
		FIELD_INPLANE=50.00
		FIELD_CROSSPLANE=50.00
		FIELD_TYPE=RECTANGULAR
		GANTRY=0.00
		GANTRY_UPRIGHT_POSITION=0
		GANTRY_ROTATION=CW
		COLL_ANGLE=90.00
		SCAN_DEVICE=OCTAVIUS_1600_XDR
		ELECTROMETER=DETECTOR_INTERFACE
		ELECTROMETER_SN=5987
		DETECTOR=OCTAVIUS_1600_XDR
		DETECTOR_SN=191760
		FILTER=FF
		SCAN_CURVETYPE=CROSSPLANE_PROFILE
		SCAN_DEPTH=0.00
		SCAN_OFFAXIS_INPLANE=-65.00
		SCAN_ANGLE=0.00
		SCAN_DIAGONAL=NOT_DIAGONAL
		MEAS_PRESET=TIME_PRESET
		MEAS_TIME=37.600
		MEAS_UNIT=GY
		PRESSURE=995.30
		TEMPERATURE=19.10
		NORM_TEMPERATURE=20.00
		CORRECTION_FACTOR=1.1270
		CALIBRATION_FILE=C:\Users\Public\Documents\PTW\Common Files\Calibration Files\230554201_OCTAVIUS1600XDR_191760.cal
		CORRECTIONS=AIR_DENSITY_CORR;FACTOR_CORR;
		BEGIN_DATA
			-75.00		-149.83E-06		#1519
			-70.00		-69.811E-06		#1488
			-65.00		156.23E-06		#1457
			-60.00		75.635E-06		#1426
			-55.00		283.83E-06		#1395
			-50.00		276.71E-06		#1364
			-45.00		-32.913E-06		#1333
			-40.00		153.32E-06		#1302
			-35.00		204.63E-06		#1271
			-30.00		105.91E-06		#1213
			-25.00		20.829E-06		#1141
			-20.00		-127.88E-06		#1069
			-15.00		278.88E-06		#997
			-10.00		410.60E-06		#925
			-5.00		209.92E-06		#853
			0.00		136.03E-06		#781
			5.00		253.75E-06		#709
			10.00		434.51E-06		#637
			15.00		52.405E-06		#565
			20.00		-255.60E-06		#493
			25.00		327.65E-06		#421
			30.00		-40.223E-06		#349
			35.00		328.23E-06		#277
			40.00		92.020E-06		#246
			45.00		366.18E-06		#215
			50.00		-41.915E-06		#184
			55.00		155.29E-06		#153
			60.00		93.419E-06		#122
			65.00		427.64E-09		#91
			70.00		134.44E-06		#60
			75.00		-97.120E-06		#29
		END_DATA
	END_SCAN  3
	BEGIN_SCAN  4
		TASK_NAME=DOSE
		GROUP_NAME=LR_37.6
		PROGRAM=BeamAdjust 2.3.0.25
		COMMENT=G000, E221_c-dhex3.6_4
		MEAS_DATE=08-Jun-2024 21:53:55
		LINAC=HIT
		MODALITY=P
		INPLANE_AXIS_DIR=TARGET_GUN
		CROSSPLANE_AXIS_DIR=LEFT_RIGHT
		DEPTH_AXIS_DIR=UP_DOWN
		ENERGY=0.00
		SSD=0.00
		FIELD_INPLANE=50.00
		FIELD_CROSSPLANE=50.00
		FIELD_TYPE=RECTANGULAR
		GANTRY=0.00
		GANTRY_UPRIGHT_POSITION=0
		GANTRY_ROTATION=CW
		COLL_ANGLE=90.00
		SCAN_DEVICE=OCTAVIUS_1600_XDR
		ELECTROMETER=DETECTOR_INTERFACE
		ELECTROMETER_SN=5987
		DETECTOR=OCTAVIUS_1600_XDR
		DETECTOR_SN=191760
		FILTER=FF
		SCAN_CURVETYPE=CROSSPLANE_PROFILE
		SCAN_DEPTH=0.00
		SCAN_OFFAXIS_INPLANE=-60.00
		SCAN_ANGLE=0.00
		SCAN_DIAGONAL=NOT_DIAGONAL
		MEAS_PRESET=TIME_PRESET
		MEAS_TIME=37.600
		MEAS_UNIT=GY
		PRESSURE=995.30
		TEMPERATURE=19.10
		NORM_TEMPERATURE=20.00
		CORRECTION_FACTOR=1.1270
		CALIBRATION_FILE=C:\Users\Public\Documents\PTW\Common Files\Calibration Files\230554201_OCTAVIUS1600XDR_191760.cal
		CORRECTIONS=AIR_DENSITY_CORR;FACTOR_CORR;
		BEGIN_DATA
			-75.00		176.90E-06		#1518
			-70.00		-26.609E-06		#1487
			-65.00		173.81E-06		#1456
			-60.00		866.44E-09		#1425
			-55.00		125.86E-06		#1394
			-50.00		165.78E-06		#1363
			-45.00		-100.76E-06		#1332
			-40.00		334.63E-06		#1301
			-35.00		185.56E-06		#1270
			-30.00		105.67E-06		#1212
			-25.00		375.86E-06		#1140
			-20.00		245.56E-06		#1068
			-15.00		228.50E-06		#996
			-10.00		301.48E-06		#924
			-5.00		622.99E-06		#852
			0.00		80.413E-06		#780
			5.00		381.28E-06		#708
			10.00		456.37E-06		#636
			15.00		333.35E-06		#564
			20.00		136.41E-06		#492
			25.00		286.81E-06		#420
			30.00		383.10E-06		#348
			35.00		-57.211E-06		#276
			40.00		279.41E-06		#245
			45.00		94.609E-06		#214
			50.00		178.72E-06		#183
			55.00		264.10E-06		#152
			60.00		165.59E-06		#121
			65.00		342.63E-06		#90
			70.00		139.34E-06		#59
			75.00		384.61E-06		#28
		END_DATA
	END_SCAN  4
	BEGIN_SCAN  5
		TASK_NAME=DOSE
		GROUP_NAME=LR_37.6
		PROGRAM=BeamAdjust 2.3.0.25
		COMMENT=G000, E221_c-dhex3.6_4
		MEAS_DATE=08-Jun-2024 21:53:55
		LINAC=HIT
		MODALITY=P
		INPLANE_AXIS_DIR=TARGET_GUN
		CROSSPLANE_AXIS_DIR=LEFT_RIGHT
		DEPTH_AXIS_DIR=UP_DOWN
		ENERGY=0.00
		SSD=0.00
		FIELD_INPLANE=50.00
		FIELD_CROSSPLANE=50.00
		FIELD_TYPE=RECTANGULAR
		GANTRY=0.00
		GANTRY_UPRIGHT_POSITION=0
		GANTRY_ROTATION=CW
		COLL_ANGLE=90.00
		SCAN_DEVICE=OCTAVIUS_1600_XDR
		ELECTROMETER=DETECTOR_INTERFACE
		ELECTROMETER_SN=5987
		DETECTOR=OCTAVIUS_1600_XDR
		DETECTOR_SN=191760
		FILTER=FF
		SCAN_CURVETYPE=CROSSPLANE_PROFILE
		SCAN_DEPTH=0.00
		SCAN_OFFAXIS_INPLANE=-55.00
		SCAN_ANGLE=0.00
		SCAN_DIAGONAL=NOT_DIAGONAL
		MEAS_PRESET=TIME_PRESET
		MEAS_TIME=37.600
		MEAS_UNIT=GY
		PRESSURE=995.30
		TEMPERATURE=19.10
		NORM_TEMPERATURE=20.00
		CORRECTION_FACTOR=1.1270
		CALIBRATION_FILE=C:\Users\Public\Documents\PTW\Common Files\Calibration Files\230554201_OCTAVIUS1600XDR_191760.cal
		CORRECTIONS=AIR_DENSITY_CORR;FACTOR_CORR;
		BEGIN_DATA
			-75.00		-75.263E-06		#1517
			-70.00		94.423E-06		#1486
			-65.00		-102.16E-06		#1455
			-60.00		98.486E-06		#1424
			-55.00		42.214E-06		#1393
			-50.00		127.70E-06		#1362
			-45.00		185.07E-06		#1331
			-40.00		125.07E-06		#1300
			-35.00		260.37E-06		#1269
			-30.00		262.45E-06		#1211
			-25.00		642.52E-06		#1139
			-20.00		325.73E-06		#1067
			-15.00		545.01E-06		#995
			-10.00		463.09E-06		#923
			-5.00		412.33E-06		#851
			0.00		334.45E-06		#779
			5.00		409.67E-06		#707
			10.00		534.62E-06		#635
			15.00		450.74E-06		#563
			20.00		654.33E-06		#491
			25.00		102.54E-06		#419
			30.00		151.96E-06		#347
			35.00		127.97E-06		#275
			40.00		-239.82E-06		#244
			45.00		384.52E-06		#213
			50.00		316.88E-06		#182
			55.00		97.334E-06		#151
			60.00		-178.23E-06		#120
			65.00		208.56E-06		#89
			70.00		106.93E-06		#58
			75.00		-261.65E-06		#27
		END_DATA
	END_SCAN  5
	BEGIN_SCAN  6
		TASK_NAME=DOSE
		GROUP_NAME=LR_37.6
		PROGRAM=BeamAdjust 2.3.0.25
		COMMENT=G000, E221_c-dhex3.6_4
		MEAS_DATE=08-Jun-2024 21:53:55
		LINAC=HIT
		MODALITY=P
		INPLANE_AXIS_DIR=TARGET_GUN
		CROSSPLANE_AXIS_DIR=LEFT_RIGHT
		DEPTH_AXIS_DIR=UP_DOWN
		ENERGY=0.00
		SSD=0.00
		FIELD_INPLANE=50.00
		FIELD_CROSSPLANE=50.00
		FIELD_TYPE=RECTANGULAR
		GANTRY=0.00
		GANTRY_UPRIGHT_POSITION=0
		GANTRY_ROTATION=CW
		COLL_ANGLE=90.00
		SCAN_DEVICE=OCTAVIUS_1600_XDR
		ELECTROMETER=DETECTOR_INTERFACE
		ELECTROMETER_SN=5987
		DETECTOR=OCTAVIUS_1600_XDR
		DETECTOR_SN=191760
		FILTER=FF
		SCAN_CURVETYPE=CROSSPLANE_PROFILE
		SCAN_DEPTH=0.00
		SCAN_OFFAXIS_INPLANE=-50.00
		SCAN_ANGLE=0.00
		SCAN_DIAGONAL=NOT_DIAGONAL
		MEAS_PRESET=TIME_PRESET
		MEAS_TIME=37.600
		MEAS_UNIT=GY
		PRESSURE=995.30
		TEMPERATURE=19.10
		NORM_TEMPERATURE=20.00
		CORRECTION_FACTOR=1.1270
		CALIBRATION_FILE=C:\Users\Public\Documents\PTW\Common Files\Calibration Files\230554201_OCTAVIUS1600XDR_191760.cal
		CORRECTIONS=AIR_DENSITY_CORR;FACTOR_CORR;
		BEGIN_DATA
			-75.00		223.84E-06		#1516
			-70.00		89.274E-06		#1485
			-65.00		-86.845E-06		#1454
			-60.00		93.434E-06		#1423
			-55.00		-32.974E-06		#1392
			-50.00		130.16E-06		#1361
			-45.00		346.00E-06		#1330
			-40.00		643.02E-06		#1299
			-35.00		497.99E-06		#1268
			-30.00		1.0831E-03		#1210
			-25.00		609.96E-06		#1138
			-20.00		912.38E-06		#1066
			-15.00		1.1658E-03		#994
			-10.00		820.14E-06		#922
			-5.00		1.1597E-03		#850
			0.00		1.1903E-03		#778
			5.00		995.94E-06		#706
			10.00		1.2151E-03		#634
			15.00		857.44E-06		#562
			20.00		1.1237E-03		#490
			25.00		988.89E-06		#418
			30.00		793.25E-06		#346
			35.00		671.00E-06		#274
			40.00		417.58E-06		#243
			45.00		140.20E-06		#212
			50.00		-15.729E-06		#181
			55.00		155.01E-06		#150
			60.00		167.13E-06		#119
			65.00		173.42E-06		#88
			70.00		256.83E-06		#57
			75.00		-164.33E-06		#26
		END_DATA
	END_SCAN  6
	BEGIN_SCAN  7
		TASK_NAME=DOSE
		GROUP_NAME=LR_37.6
		PROGRAM=BeamAdjust 2.3.0.25
		COMMENT=G000, E221_c-dhex3.6_4
		MEAS_DATE=08-Jun-2024 21:53:55
		LINAC=HIT
		MODALITY=P
		INPLANE_AXIS_DIR=TARGET_GUN
		CROSSPLANE_AXIS_DIR=LEFT_RIGHT
		DEPTH_AXIS_DIR=UP_DOWN
		ENERGY=0.00
		SSD=0.00
		FIELD_INPLANE=50.00
		FIELD_CROSSPLANE=50.00
		FIELD_TYPE=RECTANGULAR
		GANTRY=0.00
		GANTRY_UPRIGHT_POSITION=0
		GANTRY_ROTATION=CW
		COLL_ANGLE=90.00
		SCAN_DEVICE=OCTAVIUS_1600_XDR
		ELECTROMETER=DETECTOR_INTERFACE
		ELECTROMETER_SN=5987
		DETECTOR=OCTAVIUS_1600_XDR
		DETECTOR_SN=191760
		FILTER=FF
		SCAN_CURVETYPE=CROSSPLANE_PROFILE
		SCAN_DEPTH=0.00
		SCAN_OFFAXIS_INPLANE=-45.00
		SCAN_ANGLE=0.00
		SCAN_DIAGONAL=NOT_DIAGONAL
		MEAS_PRESET=TIME_PRESET
		MEAS_TIME=37.600
		MEAS_UNIT=GY
		PRESSURE=995.30
		TEMPERATURE=19.10
		NORM_TEMPERATURE=20.00
		CORRECTION_FACTOR=1.1270
		CALIBRATION_FILE=C:\Users\Public\Documents\PTW\Common Files\Calibration Files\230554201_OCTAVIUS1600XDR_191760.cal
		CORRECTIONS=AIR_DENSITY_CORR;FACTOR_CORR;
		BEGIN_DATA
			-75.00		192.19E-06		#1515
			-70.00		-160.27E-06		#1484
			-65.00		120.76E-06		#1453
			-60.00		-103.32E-06		#1422
			-55.00		181.14E-06		#1391
			-50.00		397.55E-06		#1360
			-45.00		759.00E-06		#1329
			-40.00		1.7606E-03		#1298
			-35.00		3.6670E-03		#1267
			-30.00		4.9398E-03		#1209
			-25.00		5.2099E-03		#1137
			-20.00		5.2696E-03		#1065
			-15.00		5.6670E-03		#993
			-10.00		5.8792E-03		#921
			-5.00		5.7769E-03		#849
			0.00		5.7286E-03		#777
			5.00		5.6906E-03		#705
			10.00		5.5604E-03		#633
			15.00		5.6308E-03		#561
			20.00		5.7369E-03		#489
			25.00		5.8812E-03		#417
			30.00		5.0307E-03		#345
			35.00		3.0068E-03		#273
			40.00		1.2967E-03		#242
			45.00		557.07E-06		#211
			50.00		186.77E-06		#180
			55.00		71.964E-06		#149
			60.00		199.03E-06		#118
			65.00		237.10E-06		#87
			70.00		101.85E-06		#56
			75.00		-177.90E-06		#25
		END_DATA
	END_SCAN  7
	BEGIN_SCAN  8
		TASK_NAME=DOSE
		GROUP_NAME=LR_37.6
		PROGRAM=BeamAdjust 2.3.0.25
		COMMENT=G000, E221_c-dhex3.6_4
		MEAS_DATE=08-Jun-2024 21:53:55
		LINAC=HIT
		MODALITY=P
		INPLANE_AXIS_DIR=TARGET_GUN
		CROSSPLANE_AXIS_DIR=LEFT_RIGHT
		DEPTH_AXIS_DIR=UP_DOWN
		ENERGY=0.00
		SSD=0.00
		FIELD_INPLANE=50.00
		FIELD_CROSSPLANE=50.00
		FIELD_TYPE=RECTANGULAR
		GANTRY=0.00
		GANTRY_UPRIGHT_POSITION=0
		GANTRY_ROTATION=CW
		COLL_ANGLE=90.00
		SCAN_DEVICE=OCTAVIUS_1600_XDR
		ELECTROMETER=DETECTOR_INTERFACE
		ELECTROMETER_SN=5987
		DETECTOR=OCTAVIUS_1600_XDR
		DETECTOR_SN=191760
		FILTER=FF
		SCAN_CURVETYPE=CROSSPLANE_PROFILE
		SCAN_DEPTH=0.00
		SCAN_OFFAXIS_INPLANE=-40.00
		SCAN_ANGLE=0.00
		SCAN_DIAGONAL=NOT_DIAGONAL
		MEAS_PRESET=TIME_PRESET
		MEAS_TIME=37.600
		MEAS_UNIT=GY
		PRESSURE=995.30
		TEMPERATURE=19.10
		NORM_TEMPERATURE=20.00
		CORRECTION_FACTOR=1.1270
		CALIBRATION_FILE=C:\Users\Public\Documents\PTW\Common Files\Calibration Files\230554201_OCTAVIUS1600XDR_191760.cal
		CORRECTIONS=AIR_DENSITY_CORR;FACTOR_CORR;
		BEGIN_DATA
			-75.00		4.8021E-06		#1514
			-70.00		110.77E-06		#1483
			-65.00		186.84E-06		#1452
			-60.00		-34.155E-06		#1421
			-55.00		455.98E-06		#1390
			-50.00		583.22E-06		#1359
			-45.00		2.6424E-03		#1328
			-40.00		11.625E-03		#1297
			-35.00		26.270E-03		#1266
			-30.00		34.741E-03		#1208
			-25.00		36.768E-03		#1136
			-20.00		36.262E-03		#1064
			-15.00		36.924E-03		#992
			-10.00		37.591E-03		#920
			-5.00		37.734E-03		#848
			0.00		37.049E-03		#776
			5.00		37.260E-03		#704
			10.00		37.334E-03		#632
			15.00		37.807E-03		#560
			20.00		38.917E-03		#488
			25.00		38.412E-03		#416
			30.00		33.300E-03		#344
			35.00		18.974E-03		#272
			40.00		4.9967E-03		#241
			45.00		870.07E-06		#210
			50.00		57.378E-06		#179
			55.00		473.89E-06		#148
			60.00		112.62E-06		#117
			65.00		262.98E-06		#86
			70.00		52.557E-06		#55
			75.00		365.11E-06		#24
		END_DATA
	END_SCAN  8
	BEGIN_SCAN  9
		TASK_NAME=DOSE
		GROUP_NAME=LR_37.6
		PROGRAM=BeamAdjust 2.3.0.25
		COMMENT=G000, E221_c-dhex3.6_4
		MEAS_DATE=08-Jun-2024 21:53:55
		LINAC=HIT
		MODALITY=P
		INPLANE_AXIS_DIR=TARGET_GUN
		CROSSPLANE_AXIS_DIR=LEFT_RIGHT
		DEPTH_AXIS_DIR=UP_DOWN
		ENERGY=0.00
		SSD=0.00
		FIELD_INPLANE=50.00
		FIELD_CROSSPLANE=50.00
		FIELD_TYPE=RECTANGULAR
		GANTRY=0.00
		GANTRY_UPRIGHT_POSITION=0
		GANTRY_ROTATION=CW
		COLL_ANGLE=90.00
		SCAN_DEVICE=OCTAVIUS_1600_XDR
		ELECTROMETER=DETECTOR_INTERFACE
		ELECTROMETER_SN=5987
		DETECTOR=OCTAVIUS_1600_XDR
		DETECTOR_SN=191760
		FILTER=FF
		SCAN_CURVETYPE=CROSSPLANE_PROFILE
		SCAN_DEPTH=0.00
		SCAN_OFFAXIS_INPLANE=-35.00
		SCAN_ANGLE=0.00
		SCAN_DIAGONAL=NOT_DIAGONAL
		MEAS_PRESET=TIME_PRESET
		MEAS_TIME=37.600
		MEAS_UNIT=GY
		PRESSURE=995.30
		TEMPERATURE=19.10
		NORM_TEMPERATURE=20.00
		CORRECTION_FACTOR=1.1270
		CALIBRATION_FILE=C:\Users\Public\Documents\PTW\Common Files\Calibration Files\230554201_OCTAVIUS1600XDR_191760.cal
		CORRECTIONS=AIR_DENSITY_CORR;FACTOR_CORR;
		BEGIN_DATA
			-75.00		239.65E-06		#1513
			-70.00		-175.02E-06		#1482
			-65.00		333.39E-06		#1451
			-60.00		385.78E-06		#1420
			-55.00		290.62E-06		#1389
			-50.00		896.59E-06		#1358
			-45.00		6.0832E-03		#1327
			-40.00		27.819E-03		#1296
			-35.00		62.802E-03		#1265
			-30.00		82.150E-03		#1207
			-25.00		85.908E-03		#1135
			-20.00		85.584E-03		#1063
			-15.00		86.246E-03		#991
			-10.00		87.955E-03		#919
			-5.00		87.601E-03		#847
			0.00		86.960E-03		#775
			5.00		86.987E-03		#703
			10.00		87.799E-03		#631
			15.00		88.172E-03		#559
			20.00		89.518E-03		#487
			25.00		87.944E-03		#415
			30.00		74.922E-03		#343
			35.00		41.435E-03		#271
			40.00		10.420E-03		#240
			45.00		1.0804E-03		#209
			50.00		188.46E-06		#178
			55.00		174.49E-06		#147
			60.00		239.27E-06		#116
			65.00		-5.6210E-06		#85
			70.00		255.75E-06		#54
			75.00		-113.45E-06		#23
		END_DATA
	END_SCAN  9
	BEGIN_SCAN  10
		TASK_NAME=DOSE
		GROUP_NAME=LR_37.6
		PROGRAM=BeamAdjust 2.3.0.25
		COMMENT=G000, E221_c-dhex3.6_4
		MEAS_DATE=08-Jun-2024 21:53:55
		LINAC=HIT
		MODALITY=P
		INPLANE_AXIS_DIR=TARGET_GUN
		CROSSPLANE_AXIS_DIR=LEFT_RIGHT
		DEPTH_AXIS_DIR=UP_DOWN
		ENERGY=0.00
		SSD=0.00
		FIELD_INPLANE=50.00
		FIELD_CROSSPLANE=50.00
		FIELD_TYPE=RECTANGULAR
		GANTRY=0.00
		GANTRY_UPRIGHT_POSITION=0
		GANTRY_ROTATION=CW
		COLL_ANGLE=90.00
		SCAN_DEVICE=OCTAVIUS_1600_XDR
		ELECTROMETER=DETECTOR_INTERFACE
		ELECTROMETER_SN=5987
		DETECTOR=OCTAVIUS_1600_XDR
		DETECTOR_SN=191760
		FILTER=FF
		SCAN_CURVETYPE=CROSSPLANE_PROFILE
		SCAN_DEPTH=0.00
		SCAN_OFFAXIS_INPLANE=-32.50
		SCAN_ANGLE=0.00
		SCAN_DIAGONAL=NOT_DIAGONAL
		MEAS_PRESET=TIME_PRESET
		MEAS_TIME=37.600
		MEAS_UNIT=GY
		PRESSURE=995.30
		TEMPERATURE=19.10
		NORM_TEMPERATURE=20.00
		CORRECTION_FACTOR=1.1270
		CALIBRATION_FILE=C:\Users\Public\Documents\PTW\Common Files\Calibration Files\230554201_OCTAVIUS1600XDR_191760.cal
		CORRECTIONS=AIR_DENSITY_CORR;FACTOR_CORR;
		BEGIN_DATA
			-32.50		93.174E-03		#1242
			-30.00		102.16E-03		#1206
			-27.50		105.97E-03		#1170
			-25.00		105.86E-03		#1134
			-22.50		105.41E-03		#1098
			-20.00		105.43E-03		#1062
			-17.50		105.81E-03		#1026
			-15.00		106.73E-03		#990
			-12.50		107.65E-03		#954
			-10.00		108.38E-03		#918
			-7.50		107.44E-03		#882
			-5.00		107.38E-03		#846
			-2.50		107.30E-03		#810
			0.00		107.02E-03		#774
			2.50		106.08E-03		#738
			5.00		107.43E-03		#702
			7.50		106.62E-03		#666
			10.00		107.05E-03		#630
			12.50		107.90E-03		#594
			15.00		107.53E-03		#558
			17.50		108.44E-03		#522
			20.00		108.43E-03		#486
			22.50		108.71E-03		#450
			25.00		106.74E-03		#414
			27.50		102.21E-03		#378
			30.00		91.397E-03		#342
			32.50		72.165E-03		#306
		END_DATA
	END_SCAN  10
	BEGIN_SCAN  11
		TASK_NAME=DOSE
		GROUP_NAME=LR_37.6
		PROGRAM=BeamAdjust 2.3.0.25
		COMMENT=G000, E221_c-dhex3.6_4
		MEAS_DATE=08-Jun-2024 21:53:55
		LINAC=HIT
		MODALITY=P
		INPLANE_AXIS_DIR=TARGET_GUN
		CROSSPLANE_AXIS_DIR=LEFT_RIGHT
		DEPTH_AXIS_DIR=UP_DOWN
		ENERGY=0.00
		SSD=0.00
		FIELD_INPLANE=50.00
		FIELD_CROSSPLANE=50.00
		FIELD_TYPE=RECTANGULAR
		GANTRY=0.00
		GANTRY_UPRIGHT_POSITION=0
		GANTRY_ROTATION=CW
		COLL_ANGLE=90.00
		SCAN_DEVICE=OCTAVIUS_1600_XDR
		ELECTROMETER=DETECTOR_INTERFACE
		ELECTROMETER_SN=5987
		DETECTOR=OCTAVIUS_1600_XDR
		DETECTOR_SN=191760
		FILTER=FF
		SCAN_CURVETYPE=CROSSPLANE_PROFILE
		SCAN_DEPTH=0.00
		SCAN_OFFAXIS_INPLANE=-30.00
		SCAN_ANGLE=0.00
		SCAN_DIAGONAL=NOT_DIAGONAL
		MEAS_PRESET=TIME_PRESET
		MEAS_TIME=37.600
		MEAS_UNIT=GY
		PRESSURE=995.30
		TEMPERATURE=19.10
		NORM_TEMPERATURE=20.00
		CORRECTION_FACTOR=1.1270
		CALIBRATION_FILE=C:\Users\Public\Documents\PTW\Common Files\Calibration Files\230554201_OCTAVIUS1600XDR_191760.cal
		CORRECTIONS=AIR_DENSITY_CORR;FACTOR_CORR;
		BEGIN_DATA
			-75.00		100.17E-06		#1512
			-70.00		217.89E-06		#1481
			-65.00		116.59E-06		#1450
			-60.00		124.61E-06		#1419
			-55.00		564.50E-06		#1388
			-50.00		1.0759E-03		#1357
			-45.00		8.1265E-03		#1326
			-40.00		39.293E-03		#1295
			-35.00		87.873E-03		#1264
			-32.50		105.10E-03		#1241
			-30.00		114.19E-03		#1205
			-27.50		116.35E-03		#1169
			-25.00		118.68E-03		#1133
			-22.50		118.52E-03		#1097
			-20.00		117.95E-03		#1061
			-17.50		118.68E-03		#1025
			-15.00		119.49E-03		#989
			-12.50		120.21E-03		#953
			-10.00		119.72E-03		#917
			-7.50		120.44E-03		#881
			-5.00		119.56E-03		#845
			-2.50		118.94E-03		#809
			0.00		118.92E-03		#773
			2.50		119.67E-03		#737
			5.00		118.78E-03		#701
			7.50		120.06E-03		#665
			10.00		118.73E-03		#629
			12.50		119.79E-03		#593
			15.00		119.95E-03		#557
			17.50		119.84E-03		#521
			20.00		120.11E-03		#485
			22.50		119.59E-03		#449
			25.00		117.86E-03		#413
			27.50		112.73E-03		#377
			30.00		99.791E-03		#341
			32.50		79.820E-03		#305
			35.00		53.861E-03		#270
			40.00		13.848E-03		#239
			45.00		1.7722E-03		#208
			50.00		441.51E-06		#177
			55.00		263.47E-06		#146
			60.00		166.07E-06		#115
			65.00		3.8776E-06		#84
			70.00		205.86E-06		#53
			75.00		-399.63E-06		#22
		END_DATA
	END_SCAN  11
	BEGIN_SCAN  12
		TASK_NAME=DOSE
		GROUP_NAME=LR_37.6
		PROGRAM=BeamAdjust 2.3.0.25
		COMMENT=G000, E221_c-dhex3.6_4
		MEAS_DATE=08-Jun-2024 21:53:55
		LINAC=HIT
		MODALITY=P
		INPLANE_AXIS_DIR=TARGET_GUN
		CROSSPLANE_AXIS_DIR=LEFT_RIGHT
		DEPTH_AXIS_DIR=UP_DOWN
		ENERGY=0.00
		SSD=0.00
		FIELD_INPLANE=50.00
		FIELD_CROSSPLANE=50.00
		FIELD_TYPE=RECTANGULAR
		GANTRY=0.00
		GANTRY_UPRIGHT_POSITION=0
		GANTRY_ROTATION=CW
		COLL_ANGLE=90.00
		SCAN_DEVICE=OCTAVIUS_1600_XDR
		ELECTROMETER=DETECTOR_INTERFACE
		ELECTROMETER_SN=5987
		DETECTOR=OCTAVIUS_1600_XDR
		DETECTOR_SN=191760
		FILTER=FF
		SCAN_CURVETYPE=CROSSPLANE_PROFILE
		SCAN_DEPTH=0.00
		SCAN_OFFAXIS_INPLANE=-27.50
		SCAN_ANGLE=0.00
		SCAN_DIAGONAL=NOT_DIAGONAL
		MEAS_PRESET=TIME_PRESET
		MEAS_TIME=37.600
		MEAS_UNIT=GY
		PRESSURE=995.30
		TEMPERATURE=19.10
		NORM_TEMPERATURE=20.00
		CORRECTION_FACTOR=1.1270
		CALIBRATION_FILE=C:\Users\Public\Documents\PTW\Common Files\Calibration Files\230554201_OCTAVIUS1600XDR_191760.cal
		CORRECTIONS=AIR_DENSITY_CORR;FACTOR_CORR;
		BEGIN_DATA
			-32.50		109.32E-03		#1240
			-30.00		120.00E-03		#1204
			-27.50		122.16E-03		#1168
			-25.00		123.77E-03		#1132
			-22.50		124.14E-03		#1096
			-20.00		123.44E-03		#1060
			-17.50		122.68E-03		#1024
			-15.00		125.06E-03		#988
			-12.50		125.27E-03		#952
			-10.00		126.19E-03		#916
			-7.50		125.17E-03		#880
			-5.00		124.46E-03		#844
			-2.50		124.25E-03		#808
			0.00		124.55E-03		#772
			2.50		125.21E-03		#736
			5.00		124.50E-03		#700
			7.50		125.40E-03		#664
			10.00		124.00E-03		#628
			12.50		124.83E-03		#592
			15.00		124.05E-03		#556
			17.50		124.45E-03		#520
			20.00		124.68E-03		#484
			22.50		124.10E-03		#448
			25.00		122.30E-03		#412
			27.50		116.00E-03		#376
			30.00		103.15E-03		#340
			32.50		82.145E-03		#304
		END_DATA
	END_SCAN  12
	BEGIN_SCAN  13
		TASK_NAME=DOSE
		GROUP_NAME=LR_37.6
		PROGRAM=BeamAdjust 2.3.0.25
		COMMENT=G000, E221_c-dhex3.6_4
		MEAS_DATE=08-Jun-2024 21:53:55
		LINAC=HIT
		MODALITY=P
		INPLANE_AXIS_DIR=TARGET_GUN
		CROSSPLANE_AXIS_DIR=LEFT_RIGHT
		DEPTH_AXIS_DIR=UP_DOWN
		ENERGY=0.00
		SSD=0.00
		FIELD_INPLANE=50.00
		FIELD_CROSSPLANE=50.00
		FIELD_TYPE=RECTANGULAR
		GANTRY=0.00
		GANTRY_UPRIGHT_POSITION=0
		GANTRY_ROTATION=CW
		COLL_ANGLE=90.00
		SCAN_DEVICE=OCTAVIUS_1600_XDR
		ELECTROMETER=DETECTOR_INTERFACE
		ELECTROMETER_SN=5987
		DETECTOR=OCTAVIUS_1600_XDR
		DETECTOR_SN=191760
		FILTER=FF
		SCAN_CURVETYPE=CROSSPLANE_PROFILE
		SCAN_DEPTH=0.00
		SCAN_OFFAXIS_INPLANE=-25.00
		SCAN_ANGLE=0.00
		SCAN_DIAGONAL=NOT_DIAGONAL
		MEAS_PRESET=TIME_PRESET
		MEAS_TIME=37.600
		MEAS_UNIT=GY
		PRESSURE=995.30
		TEMPERATURE=19.10
		NORM_TEMPERATURE=20.00
		CORRECTION_FACTOR=1.1270
		CALIBRATION_FILE=C:\Users\Public\Documents\PTW\Common Files\Calibration Files\230554201_OCTAVIUS1600XDR_191760.cal
		CORRECTIONS=AIR_DENSITY_CORR;FACTOR_CORR;
		BEGIN_DATA
			-75.00		-94.369E-06		#1511
			-70.00		82.937E-06		#1480
			-65.00		256.85E-06		#1449
			-60.00		357.75E-06		#1418
			-55.00		282.09E-06		#1387
			-50.00		1.5205E-03		#1356
			-45.00		9.1568E-03		#1325
			-40.00		41.458E-03		#1294
			-35.00		93.303E-03		#1263
			-32.50		111.22E-03		#1239
			-30.00		120.99E-03		#1203
			-27.50		124.35E-03		#1167
			-25.00		125.81E-03		#1131
			-22.50		125.60E-03		#1095
			-20.00		125.34E-03		#1059
			-17.50		126.69E-03		#1023
			-15.00		126.22E-03		#987
			-12.50		127.74E-03		#951
			-10.00		127.09E-03		#915
			-7.50		126.96E-03		#879
			-5.00		126.60E-03		#843
			-2.50		126.24E-03		#807
			0.00		125.81E-03		#771
			2.50		126.51E-03		#735
			5.00		126.16E-03		#699
			7.50		125.67E-03		#663
			10.00		125.92E-03		#627
			12.50		126.32E-03		#591
			15.00		126.59E-03		#555
			17.50		126.22E-03		#519
			20.00		127.02E-03		#483
			22.50		125.75E-03		#447
			25.00		123.68E-03		#411
			27.50		116.66E-03		#375
			30.00		105.28E-03		#339
			32.50		83.279E-03		#303
			35.00		56.689E-03		#269
			40.00		14.310E-03		#238
			45.00		2.4123E-03		#207
			50.00		569.71E-06		#176
			55.00		574.22E-06		#145
			60.00		161.60E-06		#114
			65.00		271.07E-06		#83
			70.00		6.3510E-06		#52
			75.00		147.61E-06		#21
		END_DATA
	END_SCAN  13
	BEGIN_SCAN  14
		TASK_NAME=DOSE
		GROUP_NAME=LR_37.6
		PROGRAM=BeamAdjust 2.3.0.25
		COMMENT=G000, E221_c-dhex3.6_4
		MEAS_DATE=08-Jun-2024 21:53:55
		LINAC=HIT
		MODALITY=P
		INPLANE_AXIS_DIR=TARGET_GUN
		CROSSPLANE_AXIS_DIR=LEFT_RIGHT
		DEPTH_AXIS_DIR=UP_DOWN
		ENERGY=0.00
		SSD=0.00
		FIELD_INPLANE=50.00
		FIELD_CROSSPLANE=50.00
		FIELD_TYPE=RECTANGULAR
		GANTRY=0.00
		GANTRY_UPRIGHT_POSITION=0
		GANTRY_ROTATION=CW
		COLL_ANGLE=90.00
		SCAN_DEVICE=OCTAVIUS_1600_XDR
		ELECTROMETER=DETECTOR_INTERFACE
		ELECTROMETER_SN=5987
		DETECTOR=OCTAVIUS_1600_XDR
		DETECTOR_SN=191760
		FILTER=FF
		SCAN_CURVETYPE=CROSSPLANE_PROFILE
		SCAN_DEPTH=0.00
		SCAN_OFFAXIS_INPLANE=-22.50
		SCAN_ANGLE=0.00
		SCAN_DIAGONAL=NOT_DIAGONAL
		MEAS_PRESET=TIME_PRESET
		MEAS_TIME=37.600
		MEAS_UNIT=GY
		PRESSURE=995.30
		TEMPERATURE=19.10
		NORM_TEMPERATURE=20.00
		CORRECTION_FACTOR=1.1270
		CALIBRATION_FILE=C:\Users\Public\Documents\PTW\Common Files\Calibration Files\230554201_OCTAVIUS1600XDR_191760.cal
		CORRECTIONS=AIR_DENSITY_CORR;FACTOR_CORR;
		BEGIN_DATA
			-32.50		111.44E-03		#1238
			-30.00		122.00E-03		#1202
			-27.50		125.28E-03		#1166
			-25.00		126.45E-03		#1130
			-22.50		126.15E-03		#1094
			-20.00		126.71E-03		#1058
			-17.50		126.29E-03		#1022
			-15.00		126.96E-03		#986
			-12.50		127.39E-03		#950
			-10.00		128.84E-03		#914
			-7.50		127.40E-03		#878
			-5.00		126.69E-03		#842
			-2.50		126.77E-03		#806
			0.00		126.64E-03		#770
			2.50		127.18E-03		#734
			5.00		127.01E-03		#698
			7.50		127.05E-03		#662
			10.00		126.78E-03		#626
			12.50		127.48E-03		#590
			15.00		127.31E-03		#554
			17.50		126.46E-03		#518
			20.00		126.44E-03		#482
			22.50		126.75E-03		#446
			25.00		124.33E-03		#410
			27.50		118.37E-03		#374
			30.00		105.31E-03		#338
			32.50		84.013E-03		#302
		END_DATA
	END_SCAN  14
	BEGIN_SCAN  15
		TASK_NAME=DOSE
		GROUP_NAME=LR_37.6
		PROGRAM=BeamAdjust 2.3.0.25
		COMMENT=G000, E221_c-dhex3.6_4
		MEAS_DATE=08-Jun-2024 21:53:55
		LINAC=HIT
		MODALITY=P
		INPLANE_AXIS_DIR=TARGET_GUN
		CROSSPLANE_AXIS_DIR=LEFT_RIGHT
		DEPTH_AXIS_DIR=UP_DOWN
		ENERGY=0.00
		SSD=0.00
		FIELD_INPLANE=50.00
		FIELD_CROSSPLANE=50.00
		FIELD_TYPE=RECTANGULAR
		GANTRY=0.00
		GANTRY_UPRIGHT_POSITION=0
		GANTRY_ROTATION=CW
		COLL_ANGLE=90.00
		SCAN_DEVICE=OCTAVIUS_1600_XDR
		ELECTROMETER=DETECTOR_INTERFACE
		ELECTROMETER_SN=5987
		DETECTOR=OCTAVIUS_1600_XDR
		DETECTOR_SN=191760
		FILTER=FF
		SCAN_CURVETYPE=CROSSPLANE_PROFILE
		SCAN_DEPTH=0.00
		SCAN_OFFAXIS_INPLANE=-20.00
		SCAN_ANGLE=0.00
		SCAN_DIAGONAL=NOT_DIAGONAL
		MEAS_PRESET=TIME_PRESET
		MEAS_TIME=37.600
		MEAS_UNIT=GY
		PRESSURE=995.30
		TEMPERATURE=19.10
		NORM_TEMPERATURE=20.00
		CORRECTION_FACTOR=1.1270
		CALIBRATION_FILE=C:\Users\Public\Documents\PTW\Common Files\Calibration Files\230554201_OCTAVIUS1600XDR_191760.cal
		CORRECTIONS=AIR_DENSITY_CORR;FACTOR_CORR;
		BEGIN_DATA
			-75.00		300.84E-06		#1510
			-70.00		122.90E-06		#1479
			-65.00		351.69E-06		#1448
			-60.00		-31.787E-06		#1417
			-55.00		187.18E-06		#1386
			-50.00		1.1027E-03		#1355
			-45.00		9.0057E-03		#1324
			-40.00		41.850E-03		#1293
			-35.00		93.579E-03		#1262
			-32.50		111.75E-03		#1237
			-30.00		122.05E-03		#1201
			-27.50		125.16E-03		#1165
			-25.00		127.19E-03		#1129
			-22.50		127.46E-03		#1093
			-20.00		127.27E-03		#1057
			-17.50		126.97E-03		#1021
			-15.00		128.77E-03		#985
			-12.50		128.78E-03		#949
			-10.00		127.69E-03		#913
			-7.50		128.78E-03		#877
			-5.00		127.68E-03		#841
			-2.50		127.56E-03		#805
			0.00		126.92E-03		#769
			2.50		127.42E-03		#733
			5.00		127.56E-03		#697
			7.50		127.35E-03		#661
			10.00		127.84E-03		#625
			12.50		128.40E-03		#589
			15.00		128.08E-03		#553
			17.50		127.77E-03		#517
			20.00		127.74E-03		#481
			22.50		127.73E-03		#445
			25.00		125.21E-03		#409
			27.50		118.29E-03		#373
			30.00		105.39E-03		#337
			32.50		84.355E-03		#301
			35.00		57.734E-03		#268
			40.00		14.946E-03		#237
			45.00		2.1630E-03		#206
			50.00		614.83E-06		#175
			55.00		339.63E-06		#144
			60.00		370.81E-06		#113
			65.00		170.91E-06		#82
			70.00		75.148E-06		#51
			75.00		133.46E-06		#20
		END_DATA
	END_SCAN  15
	BEGIN_SCAN  16
		TASK_NAME=DOSE
		GROUP_NAME=LR_37.6
