BEGIN_SCAN_DATA
	FORMAT=CC-Export V1.9                  
	FILE_CREATION_DATE=08-Jun-2024 21:50:58
	LAST_MODIFIED=08-Jun-2024 21:50:58
	BEGIN_SCAN  1
		TASK_NAME=DOSE
		GROUP_NAME=LR_47.2
		PROGRAM=BeamAdjust 2.3.0.25
		COMMENT=G000, E221_c-dhex3.6_4
		MEAS_DATE=08-Jun-2024 21:50:48
		LINAC=HIT
		MODALITY=P
		INPLANE_AXIS_DIR=TARGET_GUN
		CROSSPLANE_AXIS_DIR=LEFT_RIGHT
		DEPTH_AXIS_DIR=UP_DOWN
		ENERGY=0.00
		SSD=0.00
		FIELD_INPLANE=50.00
		FIELD_CROSSPLANE=50.00
		FIELD_TYPE=RECTANGULAR
		GANTRY=0.00
		GANTRY_UPRIGHT_POSITION=0
		GANTRY_ROTATION=CW
		COLL_ANGLE=90.00
		SCAN_DEVICE=OCTAVIUS_1600_XDR
		ELECTROMETER=DETECTOR_INTERFACE
		ELECTROMETER_SN=5987
		DETECTOR=OCTAVIUS_1600_XDR
		DETECTOR_SN=191760
		FILTER=FF
		SCAN_CURVETYPE=CROSSPLANE_PROFILE
		SCAN_DEPTH=0.00
		SCAN_OFFAXIS_INPLANE=-75.00
		SCAN_ANGLE=0.00
		SCAN_DIAGONAL=NOT_DIAGONAL
		MEAS_PRESET=TIME_PRESET
		MEAS_TIME=47.200
		MEAS_UNIT=GY
		PRESSURE=995.30
		TEMPERATURE=19.10
		NORM_TEMPERATURE=20.00
		CORRECTION_FACTOR=1.1270
		CALIBRATION_FILE=C:\Users\Public\Documents\PTW\Common Files\Calibration Files\230554201_OCTAVIUS1600XDR_191760.cal
		CORRECTIONS=AIR_DENSITY_CORR;FACTOR_CORR;
		BEGIN_DATA
			-75.00		178.91E-06		#1521
			-70.00		-129.92E-06		#1490
			-65.00		37.910E-06		#1459
			-60.00		-20.219E-06		#1428
			-55.00		-64.532E-06		#1397
			-50.00		-99.899E-06		#1366
			-45.00		25.096E-06		#1335
			-40.00		-118.61E-06		#1304
			-35.00		75.308E-06		#1273
			-30.00		471.77E-06		#1215
			-25.00		604.73E-06		#1143
			-20.00		60.934E-06		#1071
			-15.00		306.05E-06		#999
			-10.00		42.719E-06		#927
			-5.00		144.65E-06		#855
			0.00		133.92E-06		#783
			5.00		310.06E-06		#711
			10.00		-30.650E-06		#639
			15.00		309.73E-06		#567
			20.00		130.16E-06		#495
			25.00		277.52E-06		#423
			30.00		-357.19E-06		#351
			35.00		568.32E-06		#279
			40.00		475.40E-06		#248
			45.00		200.31E-06		#217
			50.00		-257.36E-06		#186
			55.00		106.20E-06		#155
			60.00		-105.49E-06		#124
			65.00		72.564E-06		#93
			70.00		134.14E-06		#62
			75.00		-353.42E-06		#31
		END_DATA
	END_SCAN  1
	BEGIN_SCAN  2
		TASK_NAME=DOSE
		GROUP_NAME=LR_47.2
		PROGRAM=BeamAdjust 2.3.0.25
		COMMENT=G000, E221_c-dhex3.6_4
		MEAS_DATE=08-Jun-2024 21:50:48
		LINAC=HIT
		MODALITY=P
		INPLANE_AXIS_DIR=TARGET_GUN
		CROSSPLANE_AXIS_DIR=LEFT_RIGHT
		DEPTH_AXIS_DIR=UP_DOWN
		ENERGY=0.00
		SSD=0.00
		FIELD_INPLANE=50.00
		FIELD_CROSSPLANE=50.00
		FIELD_TYPE=RECTANGULAR
		GANTRY=0.00
		GANTRY_UPRIGHT_POSITION=0
		GANTRY_ROTATION=CW
		COLL_ANGLE=90.00
		SCAN_DEVICE=OCTAVIUS_1600_XDR
		ELECTROMETER=DETECTOR_INTERFACE
		ELECTROMETER_SN=5987
		DETECTOR=OCTAVIUS_1600_XDR
		DETECTOR_SN=191760
		FILTER=FF
		SCAN_CURVETYPE=CROSSPLANE_PROFILE
		SCAN_DEPTH=0.00
		SCAN_OFFAXIS_INPLANE=-70.00
		SCAN_ANGLE=0.00
		SCAN_DIAGONAL=NOT_DIAGONAL
		MEAS_PRESET=TIME_PRESET
		MEAS_TIME=47.200
		MEAS_UNIT=GY
		PRESSURE=995.30
		TEMPERATURE=19.10
		NORM_TEMPERATURE=20.00
		CORRECTION_FACTOR=1.1270
		CALIBRATION_FILE=C:\Users\Public\Documents\PTW\Common Files\Calibration Files\230554201_OCTAVIUS1600XDR_191760.cal
		CORRECTIONS=AIR_DENSITY_CORR;FACTOR_CORR;
		BEGIN_DATA
			-75.00		232.94E-06		#1520
			-70.00		106.75E-06		#1489
			-65.00		-43.764E-06		#1458
			-60.00		184.12E-06		#1427
			-55.00		-88.638E-06		#1396
			-50.00		40.861E-06		#1365
			-45.00		289.02E-06		#1334
			-40.00		-1.7251E-06		#1303
			-35.00		469.86E-06		#1272
			-30.00		416.55E-06		#1214
			-25.00		74.821E-06		#1142
			-20.00		44.760E-06		#1070
			-15.00		-125.48E-06		#998
			-10.00		217.43E-06		#926
			-5.00		751.57E-06		#854
			0.00		106.06E-06		#782
			5.00		-78.472E-06		#710
			10.00		268.14E-06		#638
			15.00		2.6537E-06		#566
			20.00		-494.72E-06		#494
			25.00		529.62E-06		#422
			30.00		129.64E-06		#350
			35.00		269.35E-06		#278
			40.00		-53.446E-06		#247
			45.00		-74.324E-06		#216
			50.00		345.22E-06		#185
			55.00		56.302E-06		#154
			60.00		299.97E-06		#123
			65.00		73.487E-06		#92
			70.00		-108.95E-06		#61
			75.00		155.44E-06		#30
		END_DATA
	END_SCAN  2
	BEGIN_SCAN  3
		TASK_NAME=DOSE
		GROUP_NAME=LR_47.2
		PROGRAM=BeamAdjust 2.3.0.25
		COMMENT=G000, E221_c-dhex3.6_4
		MEAS_DATE=08-Jun-2024 21:50:48
		LINAC=HIT
		MODALITY=P
		INPLANE_AXIS_DIR=TARGET_GUN
		CROSSPLANE_AXIS_DIR=LEFT_RIGHT
		DEPTH_AXIS_DIR=UP_DOWN
		ENERGY=0.00
		SSD=0.00
		FIELD_INPLANE=50.00
		FIELD_CROSSPLANE=50.00
		FIELD_TYPE=RECTANGULAR
		GANTRY=0.00
		GANTRY_UPRIGHT_POSITION=0
		GANTRY_ROTATION=CW
		COLL_ANGLE=90.00
		SCAN_DEVICE=OCTAVIUS_1600_XDR
		ELECTROMETER=DETECTOR_INTERFACE
		ELECTROMETER_SN=5987
		DETECTOR=OCTAVIUS_1600_XDR
		DETECTOR_SN=191760
		FILTER=FF
		SCAN_CURVETYPE=CROSSPLANE_PROFILE
		SCAN_DEPTH=0.00
		SCAN_OFFAXIS_INPLANE=-65.00
		SCAN_ANGLE=0.00
		SCAN_DIAGONAL=NOT_DIAGONAL
		MEAS_PRESET=TIME_PRESET
		MEAS_TIME=47.200
		MEAS_UNIT=GY
		PRESSURE=995.30
		TEMPERATURE=19.10
		NORM_TEMPERATURE=20.00
		CORRECTION_FACTOR=1.1270
		CALIBRATION_FILE=C:\Users\Public\Documents\PTW\Common Files\Calibration Files\230554201_OCTAVIUS1600XDR_191760.cal
		CORRECTIONS=AIR_DENSITY_CORR;FACTOR_CORR;
		BEGIN_DATA
			-75.00		-29.406E-06		#1519
			-70.00		-4.0207E-06		#1488
			-65.00		101.86E-06		#1457
			-60.00		-80.872E-06		#1426
			-55.00		101.24E-06		#1395
			-50.00		241.04E-06		#1364
			-45.00		-10.191E-06		#1333
			-40.00		77.376E-06		#1302
			-35.00		301.50E-06		#1271
			-30.00		265.19E-06		#1213
			-25.00		-16.065E-06		#1141
			-20.00		-27.650E-06		#1069
			-15.00		389.95E-06		#997
			-10.00		148.78E-06		#925
			-5.00		278.62E-06		#853
			0.00		344.72E-06		#781
			5.00		188.15E-06		#709
			10.00		472.52E-06		#637
			15.00		158.72E-06		#565
			20.00		-207.45E-06		#493
			25.00		342.34E-06		#421
			30.00		-8.2258E-06		#349
			35.00		293.37E-06		#277
			40.00		-44.115E-06		#246
			45.00		491.94E-06		#215
			50.00		202.37E-06		#184
			55.00		101.73E-06		#153
			60.00		-53.292E-06		#122
			65.00		-249.72E-06		#91
			70.00		11.019E-06		#60
			75.00		203.51E-06		#29
		END_DATA
	END_SCAN  3
	BEGIN_SCAN  4
		TASK_NAME=DOSE
		GROUP_NAME=LR_47.2
		PROGRAM=BeamAdjust 2.3.0.25
		COMMENT=G000, E221_c-dhex3.6_4
		MEAS_DATE=08-Jun-2024 21:50:48
		LINAC=HIT
		MODALITY=P
		INPLANE_AXIS_DIR=TARGET_GUN
		CROSSPLANE_AXIS_DIR=LEFT_RIGHT
		DEPTH_AXIS_DIR=UP_DOWN
		ENERGY=0.00
		SSD=0.00
		FIELD_INPLANE=50.00
		FIELD_CROSSPLANE=50.00
		FIELD_TYPE=RECTANGULAR
		GANTRY=0.00
		GANTRY_UPRIGHT_POSITION=0
		GANTRY_ROTATION=CW
		COLL_ANGLE=90.00
		SCAN_DEVICE=OCTAVIUS_1600_XDR
		ELECTROMETER=DETECTOR_INTERFACE
		ELECTROMETER_SN=5987
		DETECTOR=OCTAVIUS_1600_XDR
		DETECTOR_SN=191760
		FILTER=FF
		SCAN_CURVETYPE=CROSSPLANE_PROFILE
		SCAN_DEPTH=0.00
		SCAN_OFFAXIS_INPLANE=-60.00
		SCAN_ANGLE=0.00
		SCAN_DIAGONAL=NOT_DIAGONAL
		MEAS_PRESET=TIME_PRESET
		MEAS_TIME=47.200
		MEAS_UNIT=GY
		PRESSURE=995.30
		TEMPERATURE=19.10
		NORM_TEMPERATURE=20.00
		CORRECTION_FACTOR=1.1270
		CALIBRATION_FILE=C:\Users\Public\Documents\PTW\Common Files\Calibration Files\230554201_OCTAVIUS1600XDR_191760.cal
		CORRECTIONS=AIR_DENSITY_CORR;FACTOR_CORR;
		BEGIN_DATA
			-75.00		206.34E-06		#1518
			-70.00		-100.96E-06		#1487
			-65.00		193.39E-06		#1456
			-60.00		57.550E-06		#1425
			-55.00		243.75E-06		#1394
			-50.00		247.18E-06		#1363
			-45.00		-26.822E-06		#1332
			-40.00		311.14E-06		#1301
			-35.00		109.86E-06		#1270
			-30.00		105.12E-06		#1212
			-25.00		476.16E-06		#1140
			-20.00		333.44E-06		#1068
			-15.00		277.10E-06		#996
			-10.00		622.82E-06		#924
			-5.00		772.47E-06		#852
			0.00		75.572E-06		#780
			5.00		549.69E-06		#708
			10.00		488.05E-06		#636
			15.00		540.51E-06		#564
			20.00		173.36E-06		#492
			25.00		199.74E-06		#420
			30.00		257.52E-06		#348
			35.00		-3.9292E-06		#276
			40.00		373.49E-06		#245
			45.00		22.111E-06		#214
			50.00		229.69E-06		#183
			55.00		291.65E-06		#152
			60.00		216.74E-06		#121
			65.00		500.36E-06		#90
			70.00		116.72E-06		#59
			75.00		351.47E-06		#28
		END_DATA
	END_SCAN  4
	BEGIN_SCAN  5
		TASK_NAME=DOSE
		GROUP_NAME=LR_47.2
		PROGRAM=BeamAdjust 2.3.0.25
		COMMENT=G000, E221_c-dhex3.6_4
		MEAS_DATE=08-Jun-2024 21:50:48
		LINAC=HIT
		MODALITY=P
		INPLANE_AXIS_DIR=TARGET_GUN
		CROSSPLANE_AXIS_DIR=LEFT_RIGHT
		DEPTH_AXIS_DIR=UP_DOWN
		ENERGY=0.00
		SSD=0.00
		FIELD_INPLANE=50.00
		FIELD_CROSSPLANE=50.00
		FIELD_TYPE=RECTANGULAR
		GANTRY=0.00
		GANTRY_UPRIGHT_POSITION=0
		GANTRY_ROTATION=CW
		COLL_ANGLE=90.00
		SCAN_DEVICE=OCTAVIUS_1600_XDR
		ELECTROMETER=DETECTOR_INTERFACE
		ELECTROMETER_SN=5987
		DETECTOR=OCTAVIUS_1600_XDR
		DETECTOR_SN=191760
		FILTER=FF
		SCAN_CURVETYPE=CROSSPLANE_PROFILE
		SCAN_DEPTH=0.00
		SCAN_OFFAXIS_INPLANE=-55.00
		SCAN_ANGLE=0.00
		SCAN_DIAGONAL=NOT_DIAGONAL
		MEAS_PRESET=TIME_PRESET
		MEAS_TIME=47.200
		MEAS_UNIT=GY
		PRESSURE=995.30
		TEMPERATURE=19.10
		NORM_TEMPERATURE=20.00
		CORRECTION_FACTOR=1.1270
		CALIBRATION_FILE=C:\Users\Public\Documents\PTW\Common Files\Calibration Files\230554201_OCTAVIUS1600XDR_191760.cal
		CORRECTIONS=AIR_DENSITY_CORR;FACTOR_CORR;
		BEGIN_DATA
			-75.00		-71.467E-06		#1517
			-70.00		367.28E-06		#1486
			-65.00		-34.711E-06		#1455
			-60.00		83.590E-06		#1424
			-55.00		43.652E-06		#1393
			-50.00		211.08E-06		#1362
			-45.00		296.00E-06		#1331
			-40.00		280.51E-06		#1300
			-35.00		482.81E-06		#1269
			-30.00		485.28E-06		#1211
			-25.00		564.36E-06		#1139
			-20.00		300.41E-06		#1067
			-15.00		731.15E-06		#995
			-10.00		223.86E-06		#923
			-5.00		517.58E-06		#851
			0.00		528.63E-06		#779
			5.00		459.87E-06		#707
			10.00		517.71E-06		#635
			15.00		282.39E-06		#563
			20.00		800.27E-06		#491
			25.00		150.15E-06		#419
			30.00		257.52E-06		#347
			35.00		211.05E-06		#275
			40.00		-120.44E-06		#244
			45.00		518.65E-06		#213
			50.00		206.32E-06		#182
			55.00		1.5227E-06		#151
			60.00		-163.06E-06		#120
			65.00		207.66E-06		#89
			70.00		56.687E-06		#58
			75.00		-264.21E-06		#27
		END_DATA
	END_SCAN  5
	BEGIN_SCAN  6
		TASK_NAME=DOSE
		GROUP_NAME=LR_47.2
		PROGRAM=BeamAdjust 2.3.0.25
		COMMENT=G000, E221_c-dhex3.6_4
		MEAS_DATE=08-Jun-2024 21:50:48
		LINAC=HIT
		MODALITY=P
		INPLANE_AXIS_DIR=TARGET_GUN
		CROSSPLANE_AXIS_DIR=LEFT_RIGHT
		DEPTH_AXIS_DIR=UP_DOWN
		ENERGY=0.00
		SSD=0.00
		FIELD_INPLANE=50.00
		FIELD_CROSSPLANE=50.00
		FIELD_TYPE=RECTANGULAR
		GANTRY=0.00
		GANTRY_UPRIGHT_POSITION=0
		GANTRY_ROTATION=CW
		COLL_ANGLE=90.00
		SCAN_DEVICE=OCTAVIUS_1600_XDR
		ELECTROMETER=DETECTOR_INTERFACE
		ELECTROMETER_SN=5987
		DETECTOR=OCTAVIUS_1600_XDR
		DETECTOR_SN=191760
		FILTER=FF
		SCAN_CURVETYPE=CROSSPLANE_PROFILE
		SCAN_DEPTH=0.00
		SCAN_OFFAXIS_INPLANE=-50.00
		SCAN_ANGLE=0.00
		SCAN_DIAGONAL=NOT_DIAGONAL
		MEAS_PRESET=TIME_PRESET
		MEAS_TIME=47.200
		MEAS_UNIT=GY
		PRESSURE=995.30
		TEMPERATURE=19.10
		NORM_TEMPERATURE=20.00
		CORRECTION_FACTOR=1.1270
		CALIBRATION_FILE=C:\Users\Public\Documents\PTW\Common Files\Calibration Files\230554201_OCTAVIUS1600XDR_191760.cal
		CORRECTIONS=AIR_DENSITY_CORR;FACTOR_CORR;
		BEGIN_DATA
			-75.00		181.60E-06		#1516
			-70.00		-9.1964E-06		#1485
			-65.00		64.021E-06		#1454
			-60.00		206.10E-06		#1423
			-55.00		175.63E-06		#1392
			-50.00		126.18E-06		#1361
			-45.00		583.21E-06		#1330
			-40.00		558.37E-06		#1299
			-35.00		318.47E-06		#1268
			-30.00		1.0300E-03		#1210
			-25.00		407.15E-06		#1138
			-20.00		737.01E-06		#1066
			-15.00		796.70E-06		#994
			-10.00		984.36E-06		#922
			-5.00		1.0901E-03		#850
			0.00		962.73E-06		#778
			5.00		950.34E-06		#706
			10.00		1.0629E-03		#634
			15.00		908.40E-06		#562
			20.00		1.0286E-03		#490
			25.00		751.47E-06		#418
			30.00		513.29E-06		#346
			35.00		452.25E-06		#274
			40.00		457.44E-06		#243
			45.00		59.276E-06		#212
			50.00		206.34E-06		#181
			55.00		366.70E-06		#150
			60.00		136.55E-06		#119
			65.00		187.55E-06		#88
			70.00		454.45E-06		#57
			75.00		-92.320E-06		#26
		END_DATA
	END_SCAN  6
	BEGIN_SCAN  7
		TASK_NAME=DOSE
		GROUP_NAME=LR_47.2
		PROGRAM=BeamAdjust 2.3.0.25
		COMMENT=G000, E221_c-dhex3.6_4
		MEAS_DATE=08-Jun-2024 21:50:48
		LINAC=HIT
		MODALITY=P
		INPLANE_AXIS_DIR=TARGET_GUN
		CROSSPLANE_AXIS_DIR=LEFT_RIGHT
		DEPTH_AXIS_DIR=UP_DOWN
		ENERGY=0.00
		SSD=0.00
		FIELD_INPLANE=50.00
		FIELD_CROSSPLANE=50.00
		FIELD_TYPE=RECTANGULAR
		GANTRY=0.00
		GANTRY_UPRIGHT_POSITION=0
		GANTRY_ROTATION=CW
		COLL_ANGLE=90.00
		SCAN_DEVICE=OCTAVIUS_1600_XDR
		ELECTROMETER=DETECTOR_INTERFACE
		ELECTROMETER_SN=5987
		DETECTOR=OCTAVIUS_1600_XDR
		DETECTOR_SN=191760
		FILTER=FF
		SCAN_CURVETYPE=CROSSPLANE_PROFILE
		SCAN_DEPTH=0.00
		SCAN_OFFAXIS_INPLANE=-45.00
		SCAN_ANGLE=0.00
		SCAN_DIAGONAL=NOT_DIAGONAL
		MEAS_PRESET=TIME_PRESET
		MEAS_TIME=47.200
		MEAS_UNIT=GY
		PRESSURE=995.30
		TEMPERATURE=19.10
		NORM_TEMPERATURE=20.00
		CORRECTION_FACTOR=1.1270
		CALIBRATION_FILE=C:\Users\Public\Documents\PTW\Common Files\Calibration Files\230554201_OCTAVIUS1600XDR_191760.cal
		CORRECTIONS=AIR_DENSITY_CORR;FACTOR_CORR;
		BEGIN_DATA
			-75.00		228.80E-06		#1515
			-70.00		83.570E-06		#1484
			-65.00		-23.905E-06		#1453
			-60.00		-9.2217E-06		#1422
			-55.00		225.08E-06		#1391
			-50.00		313.27E-06		#1360
			-45.00		539.58E-06		#1329
			-40.00		857.84E-06		#1298
			-35.00		1.6231E-03		#1267
			-30.00		2.3148E-03		#1209
			-25.00		2.7092E-03		#1137
			-20.00		2.6390E-03		#1065
			-15.00		2.8088E-03		#993
			-10.00		3.1159E-03		#921
			-5.00		3.1814E-03		#849
			0.00		3.0898E-03		#777
			5.00		3.0210E-03		#705
			10.00		2.8461E-03		#633
			15.00		2.7425E-03		#561
			20.00		2.7542E-03		#489
			25.00		2.7467E-03		#417
			30.00		2.6164E-03		#345
			35.00		1.5244E-03		#273
			40.00		941.35E-06		#242
			45.00		560.90E-06		#211
			50.00		263.59E-06		#180
			55.00		-24.632E-06		#149
			60.00		94.193E-06		#118
			65.00		469.77E-06		#87
			70.00		177.85E-06		#56
			75.00		-22.740E-06		#25
		END_DATA
	END_SCAN  7
	BEGIN_SCAN  8
		TASK_NAME=DOSE
		GROUP_NAME=LR_47.2
		PROGRAM=BeamAdjust 2.3.0.25
		COMMENT=G000, E221_c-dhex3.6_4
		MEAS_DATE=08-Jun-2024 21:50:48
		LINAC=HIT
		MODALITY=P
		INPLANE_AXIS_DIR=TARGET_GUN
		CROSSPLANE_AXIS_DIR=LEFT_RIGHT
		DEPTH_AXIS_DIR=UP_DOWN
		ENERGY=0.00
		SSD=0.00
		FIELD_INPLANE=50.00
		FIELD_CROSSPLANE=50.00
		FIELD_TYPE=RECTANGULAR
		GANTRY=0.00
		GANTRY_UPRIGHT_POSITION=0
		GANTRY_ROTATION=CW
		COLL_ANGLE=90.00
		SCAN_DEVICE=OCTAVIUS_1600_XDR
		ELECTROMETER=DETECTOR_INTERFACE
		ELECTROMETER_SN=5987
		DETECTOR=OCTAVIUS_1600_XDR
		DETECTOR_SN=191760
		FILTER=FF
		SCAN_CURVETYPE=CROSSPLANE_PROFILE
		SCAN_DEPTH=0.00
		SCAN_OFFAXIS_INPLANE=-40.00
		SCAN_ANGLE=0.00
		SCAN_DIAGONAL=NOT_DIAGONAL
		MEAS_PRESET=TIME_PRESET
		MEAS_TIME=47.200
		MEAS_UNIT=GY
		PRESSURE=995.30
		TEMPERATURE=19.10
		NORM_TEMPERATURE=20.00
		CORRECTION_FACTOR=1.1270
		CALIBRATION_FILE=C:\Users\Public\Documents\PTW\Common Files\Calibration Files\230554201_OCTAVIUS1600XDR_191760.cal
		CORRECTIONS=AIR_DENSITY_CORR;FACTOR_CORR;
		BEGIN_DATA
			-75.00		67.987E-06		#1514
			-70.00		174.01E-06		#1483
			-65.00		347.28E-06		#1452
			-60.00		-37.086E-06		#1421
			-55.00		592.04E-06		#1390
			-50.00		649.50E-06		#1359
			-45.00		1.0263E-03		#1328
			-40.00		6.6812E-03		#1297
			-35.00		23.511E-03		#1266
			-30.00		29.495E-03		#1208
			-25.00		30.620E-03		#1136
			-20.00		30.926E-03		#1064
			-15.00		32.260E-03		#992
			-10.00		32.259E-03		#920
			-5.00		31.354E-03		#848
			0.00		31.347E-03		#776
			5.00		32.332E-03		#704
			10.00		32.595E-03		#632
			15.00		32.096E-03		#560
			20.00		32.508E-03		#488
			25.00		32.868E-03		#416
			30.00		30.921E-03		#344
			35.00		16.855E-03		#272
			40.00		2.3316E-03		#241
			45.00		818.62E-06		#210
			50.00		25.442E-06		#179
			55.00		455.84E-06		#148
			60.00		13.897E-06		#117
			65.00		646.39E-06		#86
			70.00		-83.077E-06		#55
			75.00		292.97E-06		#24
		END_DATA
	END_SCAN  8
	BEGIN_SCAN  9
		TASK_NAME=DOSE
		GROUP_NAME=LR_47.2
		PROGRAM=BeamAdjust 2.3.0.25
		COMMENT=G000, E221_c-dhex3.6_4
		MEAS_DATE=08-Jun-2024 21:50:48
		LINAC=HIT
		MODALITY=P
		INPLANE_AXIS_DIR=TARGET_GUN
		CROSSPLANE_AXIS_DIR=LEFT_RIGHT
		DEPTH_AXIS_DIR=UP_DOWN
		ENERGY=0.00
		SSD=0.00
		FIELD_INPLANE=50.00
		FIELD_CROSSPLANE=50.00
		FIELD_TYPE=RECTANGULAR
		GANTRY=0.00
		GANTRY_UPRIGHT_POSITION=0
		GANTRY_ROTATION=CW
		COLL_ANGLE=90.00
		SCAN_DEVICE=OCTAVIUS_1600_XDR
		ELECTROMETER=DETECTOR_INTERFACE
		ELECTROMETER_SN=5987
		DETECTOR=OCTAVIUS_1600_XDR
		DETECTOR_SN=191760
		FILTER=FF
		SCAN_CURVETYPE=CROSSPLANE_PROFILE
		SCAN_DEPTH=0.00
		SCAN_OFFAXIS_INPLANE=-35.00
		SCAN_ANGLE=0.00
		SCAN_DIAGONAL=NOT_DIAGONAL
		MEAS_PRESET=TIME_PRESET
		MEAS_TIME=47.200
		MEAS_UNIT=GY
		PRESSURE=995.30
		TEMPERATURE=19.10
		NORM_TEMPERATURE=20.00
		CORRECTION_FACTOR=1.1270
		CALIBRATION_FILE=C:\Users\Public\Documents\PTW\Common Files\Calibration Files\230554201_OCTAVIUS1600XDR_191760.cal
		CORRECTIONS=AIR_DENSITY_CORR;FACTOR_CORR;
		BEGIN_DATA
			-75.00		536.75E-06		#1513
			-70.00		-62.199E-06		#1482
			-65.00		304.28E-06		#1451
			-60.00		264.43E-06		#1420
			-55.00		386.33E-06		#1389
			-50.00		790.43E-06		#1358
			-45.00		2.2317E-03		#1327
			-40.00		23.815E-03		#1296
			-35.00		84.660E-03		#1265
			-30.00		102.87E-03		#1207
			-25.00		104.17E-03		#1135
			-20.00		105.41E-03		#1063
			-15.00		106.02E-03		#991
			-10.00		105.49E-03		#919
			-5.00		105.41E-03		#847
			0.00		105.98E-03		#775
			5.00		105.97E-03		#703
			10.00		106.53E-03		#631
			15.00		105.94E-03		#559
			20.00		106.95E-03		#487
			25.00		106.99E-03		#415
			30.00		99.377E-03		#343
			35.00		49.191E-03		#271
			40.00		5.8603E-03		#240
			45.00		684.59E-06		#209
			50.00		7.5184E-06		#178
			55.00		212.36E-06		#147
			60.00		371.48E-06		#116
			65.00		116.17E-06		#85
			70.00		271.99E-06		#54
			75.00		-233.98E-06		#23
		END_DATA
	END_SCAN  9
	BEGIN_SCAN  10
		TASK_NAME=DOSE
		GROUP_NAME=LR_47.2
		PROGRAM=BeamAdjust 2.3.0.25
		COMMENT=G000, E221_c-dhex3.6_4
		MEAS_DATE=08-Jun-2024 21:50:48
		LINAC=HIT
		MODALITY=P
		INPLANE_AXIS_DIR=TARGET_GUN
		CROSSPLANE_AXIS_DIR=LEFT_RIGHT
		DEPTH_AXIS_DIR=UP_DOWN
		ENERGY=0.00
		SSD=0.00
		FIELD_INPLANE=50.00
		FIELD_CROSSPLANE=50.00
		FIELD_TYPE=RECTANGULAR
		GANTRY=0.00
		GANTRY_UPRIGHT_POSITION=0
		GANTRY_ROTATION=CW
		COLL_ANGLE=90.00
		SCAN_DEVICE=OCTAVIUS_1600_XDR
		ELECTROMETER=DETECTOR_INTERFACE
		ELECTROMETER_SN=5987
		DETECTOR=OCTAVIUS_1600_XDR
		DETECTOR_SN=191760
		FILTER=FF
		SCAN_CURVETYPE=CROSSPLANE_PROFILE
		SCAN_DEPTH=0.00
		SCAN_OFFAXIS_INPLANE=-32.50
		SCAN_ANGLE=0.00
		SCAN_DIAGONAL=NOT_DIAGONAL
		MEAS_PRESET=TIME_PRESET
		MEAS_TIME=47.200
		MEAS_UNIT=GY
		PRESSURE=995.30
		TEMPERATURE=19.10
		NORM_TEMPERATURE=20.00
		CORRECTION_FACTOR=1.1270
		CALIBRATION_FILE=C:\Users\Public\Documents\PTW\Common Files\Calibration Files\230554201_OCTAVIUS1600XDR_191760.cal
		CORRECTIONS=AIR_DENSITY_CORR;FACTOR_CORR;
		BEGIN_DATA
			-32.50		115.06E-03		#1242
			-30.00		119.76E-03		#1206
			-27.50		121.52E-03		#1170
			-25.00		121.30E-03		#1134
			-22.50		120.76E-03		#1098
			-20.00		121.64E-03		#1062
			-17.50		121.81E-03		#1026
			-15.00		121.66E-03		#990
			-12.50		121.69E-03		#954
			-10.00		121.26E-03		#918
			-7.50		121.00E-03		#882
			-5.00		121.30E-03		#846
			-2.50		121.69E-03		#810
			0.00		121.75E-03		#774
			2.50		120.99E-03		#738
			5.00		122.37E-03		#702
			7.50		121.50E-03		#666
			10.00		121.43E-03		#630
			12.50		122.26E-03		#594
			15.00		122.02E-03		#558
			17.50		123.42E-03		#522
			20.00		122.60E-03		#486
			22.50		122.87E-03		#450
			25.00		121.67E-03		#414
			27.50		120.20E-03		#378
			30.00		113.44E-03		#342
			32.50		90.923E-03		#306
		END_DATA
	END_SCAN  10
	BEGIN_SCAN  11
		TASK_NAME=DOSE
		GROUP_NAME=LR_47.2
		PROGRAM=BeamAdjust 2.3.0.25
		COMMENT=G000, E221_c-dhex3.6_4
		MEAS_DATE=08-Jun-2024 21:50:48
		LINAC=HIT
		MODALITY=P
		INPLANE_AXIS_DIR=TARGET_GUN
		CROSSPLANE_AXIS_DIR=LEFT_RIGHT
		DEPTH_AXIS_DIR=UP_DOWN
		ENERGY=0.00
		SSD=0.00
		FIELD_INPLANE=50.00
		FIELD_CROSSPLANE=50.00
		FIELD_TYPE=RECTANGULAR
		GANTRY=0.00
		GANTRY_UPRIGHT_POSITION=0
		GANTRY_ROTATION=CW
		COLL_ANGLE=90.00
		SCAN_DEVICE=OCTAVIUS_1600_XDR
		ELECTROMETER=DETECTOR_INTERFACE
		ELECTROMETER_SN=5987
		DETECTOR=OCTAVIUS_1600_XDR
		DETECTOR_SN=191760
		FILTER=FF
		SCAN_CURVETYPE=CROSSPLANE_PROFILE
		SCAN_DEPTH=0.00
		SCAN_OFFAXIS_INPLANE=-30.00
		SCAN_ANGLE=0.00
		SCAN_DIAGONAL=NOT_DIAGONAL
		MEAS_PRESET=TIME_PRESET
		MEAS_TIME=47.200
		MEAS_UNIT=GY
		PRESSURE=995.30
		TEMPERATURE=19.10
		NORM_TEMPERATURE=20.00
		CORRECTION_FACTOR=1.1270
		CALIBRATION_FILE=C:\Users\Public\Documents\PTW\Common Files\Calibration Files\230554201_OCTAVIUS1600XDR_191760.cal
		CORRECTIONS=AIR_DENSITY_CORR;FACTOR_CORR;
		BEGIN_DATA
			-75.00		113.99E-06		#1512
			-70.00		218.82E-06		#1481
			-65.00		138.23E-06		#1450
			-60.00		85.448E-06		#1419
			-55.00		446.97E-06		#1388
			-50.00		583.79E-06		#1357
			-45.00		2.4825E-03		#1326
			-40.00		29.665E-03		#1295
			-35.00		101.80E-03		#1264
			-32.50		119.62E-03		#1241
			-30.00		124.22E-03		#1205
			-27.50		124.13E-03		#1169
			-25.00		125.39E-03		#1133
			-22.50		125.35E-03		#1097
			-20.00		126.31E-03		#1061
			-17.50		127.10E-03		#1025
			-15.00		126.14E-03		#989
			-12.50		125.95E-03		#953
			-10.00		124.64E-03		#917
			-7.50		125.67E-03		#881
			-5.00		125.61E-03		#845
			-2.50		125.91E-03		#809
			0.00		126.15E-03		#773
			2.50		127.04E-03		#737
			5.00		125.63E-03		#701
			7.50		126.93E-03		#665
			10.00		125.07E-03		#629
			12.50		126.06E-03		#593
			15.00		126.10E-03		#557
			17.50		126.92E-03		#521
			20.00		126.89E-03		#485
			22.50		126.52E-03		#449
			25.00		125.90E-03		#413
			27.50		124.02E-03		#377
			30.00		116.36E-03		#341
			32.50		94.376E-03		#305
			35.00		56.609E-03		#270
			40.00		6.9979E-03		#239
			45.00		847.91E-06		#208
			50.00		492.26E-06		#177
			55.00		231.25E-06		#146
			60.00		117.29E-06		#115
			65.00		-25.917E-06		#84
			70.00		378.32E-06		#53
			75.00		-468.84E-06		#22
		END_DATA
	END_SCAN  11
	BEGIN_SCAN  12
		TASK_NAME=DOSE
		GROUP_NAME=LR_47.2
		PROGRAM=BeamAdjust 2.3.0.25
		COMMENT=G000, E221_c-dhex3.6_4
		MEAS_DATE=08-Jun-2024 21:50:48
		LINAC=HIT
		MODALITY=P
		INPLANE_AXIS_DIR=TARGET_GUN
		CROSSPLANE_AXIS_DIR=LEFT_RIGHT
		DEPTH_AXIS_DIR=UP_DOWN
		ENERGY=0.00
		SSD=0.00
		FIELD_INPLANE=50.00
		FIELD_CROSSPLANE=50.00
		FIELD_TYPE=RECTANGULAR
		GANTRY=0.00
		GANTRY_UPRIGHT_POSITION=0
		GANTRY_ROTATION=CW
		COLL_ANGLE=90.00
		SCAN_DEVICE=OCTAVIUS_1600_XDR
		ELECTROMETER=DETECTOR_INTERFACE
		ELECTROMETER_SN=5987
		DETECTOR=OCTAVIUS_1600_XDR
		DETECTOR_SN=191760
		FILTER=FF
		SCAN_CURVETYPE=CROSSPLANE_PROFILE
		SCAN_DEPTH=0.00
		SCAN_OFFAXIS_INPLANE=-27.50
		SCAN_ANGLE=0.00
		SCAN_DIAGONAL=NOT_DIAGONAL
		MEAS_PRESET=TIME_PRESET
		MEAS_TIME=47.200
		MEAS_UNIT=GY
		PRESSURE=995.30
		TEMPERATURE=19.10
		NORM_TEMPERATURE=20.00
		CORRECTION_FACTOR=1.1270
		CALIBRATION_FILE=C:\Users\Public\Documents\PTW\Common Files\Calibration Files\230554201_OCTAVIUS1600XDR_191760.cal
		CORRECTIONS=AIR_DENSITY_CORR;FACTOR_CORR;
		BEGIN_DATA
			-32.50		120.87E-03		#1240
			-30.00		126.20E-03		#1204
			-27.50		126.32E-03		#1168
			-25.00		127.48E-03		#1132
			-22.50		127.98E-03		#1096
			-20.00		128.48E-03		#1060
			-17.50		127.61E-03		#1024
			-15.00		128.55E-03		#988
			-12.50		127.88E-03		#952
			-10.00		127.72E-03		#916
			-7.50		127.22E-03		#880
			-5.00		127.46E-03		#844
			-2.50		127.90E-03		#808
			0.00		128.33E-03		#772
			2.50		129.15E-03		#736
			5.00		128.81E-03		#700
			7.50		128.79E-03		#664
			10.00		128.04E-03		#628
			12.50		128.33E-03		#592
			15.00		127.80E-03		#556
			17.50		128.44E-03		#520
			20.00		128.75E-03		#484
			22.50		127.88E-03		#448
			25.00		127.91E-03		#412
			27.50		125.75E-03		#376
			30.00		117.93E-03		#340
			32.50		95.328E-03		#304
		END_DATA
	END_SCAN  12
	BEGIN_SCAN  13
		TASK_NAME=DOSE
		GROUP_NAME=LR_47.2
		PROGRAM=BeamAdjust 2.3.0.25
		COMMENT=G000, E221_c-dhex3.6_4
		MEAS_DATE=08-Jun-2024 21:50:48
		LINAC=HIT
		MODALITY=P
		INPLANE_AXIS_DIR=TARGET_GUN
		CROSSPLANE_AXIS_DIR=LEFT_RIGHT
		DEPTH_AXIS_DIR=UP_DOWN
		ENERGY=0.00
		SSD=0.00
		FIELD_INPLANE=50.00
		FIELD_CROSSPLANE=50.00
		FIELD_TYPE=RECTANGULAR
		GANTRY=0.00
		GANTRY_UPRIGHT_POSITION=0
		GANTRY_ROTATION=CW
		COLL_ANGLE=90.00
		SCAN_DEVICE=OCTAVIUS_1600_XDR
		ELECTROMETER=DETECTOR_INTERFACE
		ELECTROMETER_SN=5987
		DETECTOR=OCTAVIUS_1600_XDR
		DETECTOR_SN=191760
		FILTER=FF
		SCAN_CURVETYPE=CROSSPLANE_PROFILE
		SCAN_DEPTH=0.00
		SCAN_OFFAXIS_INPLANE=-25.00
		SCAN_ANGLE=0.00
		SCAN_DIAGONAL=NOT_DIAGONAL
		MEAS_PRESET=TIME_PRESET
		MEAS_TIME=47.200
		MEAS_UNIT=GY
		PRESSURE=995.30
		TEMPERATURE=19.10
		NORM_TEMPERATURE=20.00
		CORRECTION_FACTOR=1.1270
		CALIBRATION_FILE=C:\Users\Public\Documents\PTW\Common Files\Calibration Files\230554201_OCTAVIUS1600XDR_191760.cal
		CORRECTIONS=AIR_DENSITY_CORR;FACTOR_CORR;
		BEGIN_DATA
			-75.00		-105.97E-06		#1511
			-70.00		118.54E-06		#1480
			-65.00		186.55E-06		#1449
			-60.00		397.63E-06		#1418
			-55.00		275.36E-06		#1387
			-50.00		1.0378E-03		#1356
			-45.00		2.7216E-03		#1325
			-40.00		30.298E-03		#1294
			-35.00		104.19E-03		#1263
			-32.50		121.80E-03		#1239
			-30.00		127.43E-03		#1203
			-27.50		128.27E-03		#1167
			-25.00		128.22E-03		#1131
			-22.50		128.86E-03		#1095
			-20.00		129.26E-03		#1059
			-17.50		130.82E-03		#1023
			-15.00		129.15E-03		#987
			-12.50		129.75E-03		#951
			-10.00		128.49E-03		#915
			-7.50		128.65E-03		#879
			-5.00		128.98E-03		#843
			-2.50		128.76E-03		#807
			0.00		128.48E-03		#771
			2.50		130.15E-03		#735
			5.00		128.78E-03		#699
			7.50		128.76E-03		#663
			10.00		128.26E-03		#627
			12.50		128.91E-03		#591
			15.00		128.93E-03		#555
			17.50		129.23E-03		#519
			20.00		129.80E-03		#483
			22.50		129.28E-03		#447
			25.00		129.02E-03		#411
			27.50		126.23E-03		#375
			30.00		119.27E-03		#339
			32.50		96.233E-03		#303
			35.00		58.219E-03		#269
			40.00		6.9827E-03		#238
			45.00		1.5673E-03		#207
			50.00		451.10E-06		#176
			55.00		503.94E-06		#145
			60.00		119.36E-06		#114
			65.00		395.02E-06		#83
			70.00		163.69E-06		#52
			75.00		170.21E-06		#21
		END_DATA
	END_SCAN  13
	BEGIN_SCAN  14
		TASK_NAME=DOSE
		GROUP_NAME=LR_47.2
		PROGRAM=BeamAdjust 2.3.0.25
		COMMENT=G000, E221_c-dhex3.6_4
		MEAS_DATE=08-Jun-2024 21:50:48
		LINAC=HIT
		MODALITY=P
		INPLANE_AXIS_DIR=TARGET_GUN
		CROSSPLANE_AXIS_DIR=LEFT_RIGHT
		DEPTH_AXIS_DIR=UP_DOWN
		ENERGY=0.00
		SSD=0.00
		FIELD_INPLANE=50.00
		FIELD_CROSSPLANE=50.00
		FIELD_TYPE=RECTANGULAR
		GANTRY=0.00
		GANTRY_UPRIGHT_POSITION=0
		GANTRY_ROTATION=CW
		COLL_ANGLE=90.00
		SCAN_DEVICE=OCTAVIUS_1600_XDR
		ELECTROMETER=DETECTOR_INTERFACE
		ELECTROMETER_SN=5987
		DETECTOR=OCTAVIUS_1600_XDR
		DETECTOR_SN=191760
		FILTER=FF
		SCAN_CURVETYPE=CROSSPLANE_PROFILE
		SCAN_DEPTH=0.00
		SCAN_OFFAXIS_INPLANE=-22.50
		SCAN_ANGLE=0.00
		SCAN_DIAGONAL=NOT_DIAGONAL
		MEAS_PRESET=TIME_PRESET
		MEAS_TIME=47.200
		MEAS_UNIT=GY
		PRESSURE=995.30
		TEMPERATURE=19.10
		NORM_TEMPERATURE=20.00
		CORRECTION_FACTOR=1.1270
		CALIBRATION_FILE=C:\Users\Public\Documents\PTW\Common Files\Calibration Files\230554201_OCTAVIUS1600XDR_191760.cal
		CORRECTIONS=AIR_DENSITY_CORR;FACTOR_CORR;
		BEGIN_DATA
			-32.50		121.19E-03		#1238
			-30.00		127.04E-03		#1202
			-27.50		127.30E-03		#1166
			-25.00		128.51E-03		#1130
			-22.50		128.67E-03		#1094
			-20.00		129.75E-03		#1058
			-17.50		129.65E-03		#1022
			-15.00		128.66E-03		#986
			-12.50		128.14E-03		#950
			-10.00		129.10E-03		#914
			-7.50		127.81E-03		#878
			-5.00		128.17E-03		#842
			-2.50		128.92E-03		#806
			0.00		129.05E-03		#770
			2.50		129.33E-03		#734
			5.00		128.91E-03		#698
			7.50		128.98E-03		#662
			10.00		127.84E-03		#626
			12.50		128.77E-03		#590
			15.00		129.40E-03		#554
			17.50		128.76E-03		#518
			20.00		128.72E-03		#482
			22.50		128.70E-03		#446
			25.00		127.95E-03		#410
			27.50		126.50E-03		#374
			30.00		118.67E-03		#338
			32.50		96.024E-03		#302
		END_DATA
	END_SCAN  14
	BEGIN_SCAN  15
		TASK_NAME=DOSE
		GROUP_NAME=LR_47.2
		PROGRAM=BeamAdjust 2.3.0.25
		COMMENT=G000, E221_c-dhex3.6_4
		MEAS_DATE=08-Jun-2024 21:50:48
		LINAC=HIT
		MODALITY=P
		INPLANE_AXIS_DIR=TARGET_GUN
		CROSSPLANE_AXIS_DIR=LEFT_RIGHT
		DEPTH_AXIS_DIR=UP_DOWN
		ENERGY=0.00
		SSD=0.00
		FIELD_INPLANE=50.00
		FIELD_CROSSPLANE=50.00
		FIELD_TYPE=RECTANGULAR
		GANTRY=0.00
		GANTRY_UPRIGHT_POSITION=0
		GANTRY_ROTATION=CW
		COLL_ANGLE=90.00
		SCAN_DEVICE=OCTAVIUS_1600_XDR
		ELECTROMETER=DETECTOR_INTERFACE
		ELECTROMETER_SN=5987
		DETECTOR=OCTAVIUS_1600_XDR
		DETECTOR_SN=191760
		FILTER=FF
		SCAN_CURVETYPE=CROSSPLANE_PROFILE
		SCAN_DEPTH=0.00
		SCAN_OFFAXIS_INPLANE=-20.00
		SCAN_ANGLE=0.00
		SCAN_DIAGONAL=NOT_DIAGONAL
		MEAS_PRESET=TIME_PRESET
		MEAS_TIME=47.200
		MEAS_UNIT=GY
		PRESSURE=995.30
		TEMPERATURE=19.10
		NORM_TEMPERATURE=20.00
		CORRECTION_FACTOR=1.1270
		CALIBRATION_FILE=C:\Users\Public\Documents\PTW\Common Files\Calibration Files\230554201_OCTAVIUS1600XDR_191760.cal
		CORRECTIONS=AIR_DENSITY_CORR;FACTOR_CORR;
		BEGIN_DATA
			-75.00		309.88E-06		#1510
			-70.00		381.66E-06		#1479
			-65.00		374.39E-06		#1448
			-60.00		67.584E-06		#1417
			-55.00		430.92E-06		#1386
			-50.00		277.03E-06		#1355
			-45.00		2.8924E-03		#1324
			-40.00		29.791E-03		#1293
			-35.00		103.03E-03		#1262
			-32.50		120.76E-03		#1237
			-30.00		126.39E-03		#1201
			-27.50		127.22E-03		#1165
			-25.00		128.11E-03		#1129
			-22.50		128.41E-03		#1093
			-20.00		128.26E-03		#1057
			-17.50		128.93E-03		#1021
			-15.00		129.42E-03		#985
			-12.50		128.98E-03		#949
			-10.00		127.79E-03		#913
			-7.50		128.44E-03		#877
			-5.00		128.02E-03		#841
			-2.50		128.34E-03		#805
			0.00		128.54E-03		#769
			2.50		128.64E-03		#733
			5.00		128.45E-03		#697
			7.50		127.73E-03		#661
			10.00		127.81E-03		#625
			12.50		128.22E-03		#589
			15.00		128.74E-03		#553
			17.50		129.06E-03		#517
			20.00		128.94E-03		#481
			22.50		128.17E-03		#445
			25.00		127.85E-03		#409
			27.50		125.63E-03		#373
			30.00		118.32E-03		#337
			32.50		96.417E-03		#301
			35.00		58.527E-03		#268
			40.00		7.1947E-03		#237
			45.00		1.4253E-03		#206
			50.00		655.19E-06		#175
			55.00		510.83E-06		#144
			60.00		675.72E-06		#113
			65.00		247.14E-06		#82
			70.00		-118.48E-06		#51
			75.00		90.920E-06		#20
		END_DATA
	END_SCAN  15
	BEGIN_SCAN  16
		TASK_NAME=DOSE
		GROUP_NAME=LR_47.2
