BEGIN_SCAN_DATA
	FORMAT=CC-Export V1.9                  
	FILE_CREATION_DATE=08-Jun-2024 21:56:23
	LAST_MODIFIED=08-Jun-2024 21:56:23
	BEGIN_SCAN  1
		TASK_NAME=DOSE
		GROUP_NAME=LR_47.2
		PROGRAM=BeamAdjust 2.3.0.25
		COMMENT=G000, E221_c-dhex3.6_4
		MEAS_DATE=08-Jun-2024 21:56:10
		LINAC=HIT
		MODALITY=P
		INPLANE_AXIS_DIR=TARGET_GUN
		CROSSPLANE_AXIS_DIR=LEFT_RIGHT
		DEPTH_AXIS_DIR=UP_DOWN
		ENERGY=0.00
		SSD=0.00
		FIELD_INPLANE=50.00
		FIELD_CROSSPLANE=50.00
		FIELD_TYPE=RECTANGULAR
		GANTRY=0.00
		GANTRY_UPRIGHT_POSITION=0
		GANTRY_ROTATION=CW
		COLL_ANGLE=90.00
		SCAN_DEVICE=OCTAVIUS_1600_XDR
		ELECTROMETER=DETECTOR_INTERFACE
		ELECTROMETER_SN=5987
		DETECTOR=OCTAVIUS_1600_XDR
		DETECTOR_SN=191760
		FILTER=FF
		SCAN_CURVETYPE=CROSSPLANE_PROFILE
		SCAN_DEPTH=0.00
		SCAN_OFFAXIS_INPLANE=-75.00
		SCAN_ANGLE=0.00
		SCAN_DIAGONAL=NOT_DIAGONAL
		MEAS_PRESET=TIME_PRESET
		MEAS_TIME=47.200
		MEAS_UNIT=GY
		PRESSURE=995.30
		TEMPERATURE=19.10
		NORM_TEMPERATURE=20.00
		CORRECTION_FACTOR=1.1270
		CALIBRATION_FILE=C:\Users\Public\Documents\PTW\Common Files\Calibration Files\230554201_OCTAVIUS1600XDR_191760.cal
		CORRECTIONS=AIR_DENSITY_CORR;FACTOR_CORR;
		BEGIN_DATA
			-75.00		7.9957E-06		#1521
			-70.00		-119.02E-06		#1490
			-65.00		-22.000E-06		#1459
			-60.00		-141.00E-06		#1428
			-55.00		5.0096E-06		#1397
			-50.00		-143.22E-06		#1366
			-45.00		-102.73E-06		#1335
			-40.00		49.262E-06		#1304
			-35.00		-43.651E-06		#1273
			-30.00		157.07E-06		#1215
			-25.00		297.66E-06		#1143
			-20.00		-268.27E-06		#1071
			-15.00		355.54E-06		#999
			-10.00		16.503E-06		#927
			-5.00		248.33E-06		#855
			0.00		-84.137E-06		#783
			5.00		213.72E-06		#711
			10.00		-74.565E-06		#639
			15.00		234.22E-06		#567
			20.00		103.76E-06		#495
			25.00		360.03E-06		#423
			30.00		-269.55E-06		#351
			35.00		615.91E-06		#279
			40.00		304.32E-06		#248
			45.00		-34.082E-06		#217
			50.00		-310.13E-06		#186
			55.00		59.335E-06		#155
			60.00		-202.56E-06		#124
			65.00		274.83E-06		#93
			70.00		131.38E-06		#62
			75.00		-363.28E-06		#31
		END_DATA
	END_SCAN  1
	BEGIN_SCAN  2
		TASK_NAME=DOSE
		GROUP_NAME=LR_47.2
		PROGRAM=BeamAdjust 2.3.0.25
		COMMENT=G000, E221_c-dhex3.6_4
		MEAS_DATE=08-Jun-2024 21:56:10
		LINAC=HIT
		MODALITY=P
		INPLANE_AXIS_DIR=TARGET_GUN
		CROSSPLANE_AXIS_DIR=LEFT_RIGHT
		DEPTH_AXIS_DIR=UP_DOWN
		ENERGY=0.00
		SSD=0.00
		FIELD_INPLANE=50.00
		FIELD_CROSSPLANE=50.00
		FIELD_TYPE=RECTANGULAR
		GANTRY=0.00
		GANTRY_UPRIGHT_POSITION=0
		GANTRY_ROTATION=CW
		COLL_ANGLE=90.00
		SCAN_DEVICE=OCTAVIUS_1600_XDR
		ELECTROMETER=DETECTOR_INTERFACE
		ELECTROMETER_SN=5987
		DETECTOR=OCTAVIUS_1600_XDR
		DETECTOR_SN=191760
		FILTER=FF
		SCAN_CURVETYPE=CROSSPLANE_PROFILE
		SCAN_DEPTH=0.00
		SCAN_OFFAXIS_INPLANE=-70.00
		SCAN_ANGLE=0.00
		SCAN_DIAGONAL=NOT_DIAGONAL
		MEAS_PRESET=TIME_PRESET
		MEAS_TIME=47.200
		MEAS_UNIT=GY
		PRESSURE=995.30
		TEMPERATURE=19.10
		NORM_TEMPERATURE=20.00
		CORRECTION_FACTOR=1.1270
		CALIBRATION_FILE=C:\Users\Public\Documents\PTW\Common Files\Calibration Files\230554201_OCTAVIUS1600XDR_191760.cal
		CORRECTIONS=AIR_DENSITY_CORR;FACTOR_CORR;
		BEGIN_DATA
			-75.00		243.76E-06		#1520
			-70.00		220.58E-06		#1489
			-65.00		163.63E-06		#1458
			-60.00		-72.432E-06		#1427
			-55.00		-101.88E-06		#1396
			-50.00		-145.35E-06		#1365
			-45.00		220.31E-06		#1334
			-40.00		-93.360E-06		#1303
			-35.00		368.75E-06		#1272
			-30.00		295.87E-06		#1214
			-25.00		145.49E-06		#1142
			-20.00		76.295E-06		#1070
			-15.00		-111.92E-06		#998
			-10.00		141.95E-06		#926
			-5.00		419.05E-06		#854
			0.00		312.69E-06		#782
			5.00		-12.524E-06		#710
			10.00		99.875E-06		#638
			15.00		-5.4419E-06		#566
			20.00		-393.78E-06		#494
			25.00		249.93E-06		#422
			30.00		235.58E-06		#350
			35.00		161.12E-06		#278
			40.00		-85.342E-06		#247
			45.00		-102.05E-06		#216
			50.00		189.41E-06		#185
			55.00		-176.33E-06		#154
			60.00		189.91E-06		#123
			65.00		-63.484E-06		#92
			70.00		39.086E-06		#61
			75.00		19.028E-06		#30
		END_DATA
	END_SCAN  2
	BEGIN_SCAN  3
		TASK_NAME=DOSE
		GROUP_NAME=LR_47.2
		PROGRAM=BeamAdjust 2.3.0.25
		COMMENT=G000, E221_c-dhex3.6_4
		MEAS_DATE=08-Jun-2024 21:56:10
		LINAC=HIT
		MODALITY=P
		INPLANE_AXIS_DIR=TARGET_GUN
		CROSSPLANE_AXIS_DIR=LEFT_RIGHT
		DEPTH_AXIS_DIR=UP_DOWN
		ENERGY=0.00
		SSD=0.00
		FIELD_INPLANE=50.00
		FIELD_CROSSPLANE=50.00
		FIELD_TYPE=RECTANGULAR
		GANTRY=0.00
		GANTRY_UPRIGHT_POSITION=0
		GANTRY_ROTATION=CW
		COLL_ANGLE=90.00
		SCAN_DEVICE=OCTAVIUS_1600_XDR
		ELECTROMETER=DETECTOR_INTERFACE
		ELECTROMETER_SN=5987
		DETECTOR=OCTAVIUS_1600_XDR
		DETECTOR_SN=191760
		FILTER=FF
		SCAN_CURVETYPE=CROSSPLANE_PROFILE
		SCAN_DEPTH=0.00
		SCAN_OFFAXIS_INPLANE=-65.00
		SCAN_ANGLE=0.00
		SCAN_DIAGONAL=NOT_DIAGONAL
		MEAS_PRESET=TIME_PRESET
		MEAS_TIME=47.200
		MEAS_UNIT=GY
		PRESSURE=995.30
		TEMPERATURE=19.10
		NORM_TEMPERATURE=20.00
		CORRECTION_FACTOR=1.1270
		CALIBRATION_FILE=C:\Users\Public\Documents\PTW\Common Files\Calibration Files\230554201_OCTAVIUS1600XDR_191760.cal
		CORRECTIONS=AIR_DENSITY_CORR;FACTOR_CORR;
		BEGIN_DATA
			-75.00		20.100E-06		#1519
			-70.00		-174.65E-06		#1488
			-65.00		-75.456E-06		#1457
			-60.00		40.037E-06		#1426
			-55.00		174.43E-06		#1395
			-50.00		299.81E-06		#1364
			-45.00		-78.889E-06		#1333
			-40.00		-27.209E-06		#1302
			-35.00		245.21E-06		#1271
			-30.00		176.87E-06		#1213
			-25.00		-68.348E-06		#1141
			-20.00		-67.545E-06		#1069
			-15.00		400.81E-06		#997
			-10.00		273.70E-06		#925
			-5.00		359.32E-06		#853
			0.00		174.38E-06		#781
			5.00		246.00E-06		#709
			10.00		363.87E-06		#637
			15.00		124.07E-06		#565
			20.00		-204.70E-06		#493
			25.00		311.80E-06		#421
			30.00		89.009E-06		#349
			35.00		612.18E-06		#277
			40.00		6.9984E-06		#246
			45.00		340.96E-06		#215
			50.00		39.335E-06		#184
			55.00		-21.977E-06		#153
			60.00		30.399E-06		#122
			65.00		-1.6095E-06		#91
			70.00		-59.868E-06		#60
			75.00		172.87E-06		#29
		END_DATA
	END_SCAN  3
	BEGIN_SCAN  4
		TASK_NAME=DOSE
		GROUP_NAME=LR_47.2
		PROGRAM=BeamAdjust 2.3.0.25
		COMMENT=G000, E221_c-dhex3.6_4
		MEAS_DATE=08-Jun-2024 21:56:10
		LINAC=HIT
		MODALITY=P
		INPLANE_AXIS_DIR=TARGET_GUN
		CROSSPLANE_AXIS_DIR=LEFT_RIGHT
		DEPTH_AXIS_DIR=UP_DOWN
		ENERGY=0.00
		SSD=0.00
		FIELD_INPLANE=50.00
		FIELD_CROSSPLANE=50.00
		FIELD_TYPE=RECTANGULAR
		GANTRY=0.00
		GANTRY_UPRIGHT_POSITION=0
		GANTRY_ROTATION=CW
		COLL_ANGLE=90.00
		SCAN_DEVICE=OCTAVIUS_1600_XDR
		ELECTROMETER=DETECTOR_INTERFACE
		ELECTROMETER_SN=5987
		DETECTOR=OCTAVIUS_1600_XDR
		DETECTOR_SN=191760
		FILTER=FF
		SCAN_CURVETYPE=CROSSPLANE_PROFILE
		SCAN_DEPTH=0.00
		SCAN_OFFAXIS_INPLANE=-60.00
		SCAN_ANGLE=0.00
		SCAN_DIAGONAL=NOT_DIAGONAL
		MEAS_PRESET=TIME_PRESET
		MEAS_TIME=47.200
		MEAS_UNIT=GY
		PRESSURE=995.30
		TEMPERATURE=19.10
		NORM_TEMPERATURE=20.00
		CORRECTION_FACTOR=1.1270
		CALIBRATION_FILE=C:\Users\Public\Documents\PTW\Common Files\Calibration Files\230554201_OCTAVIUS1600XDR_191760.cal
		CORRECTIONS=AIR_DENSITY_CORR;FACTOR_CORR;
		BEGIN_DATA
			-75.00		269.45E-06		#1518
			-70.00		34.240E-06		#1487
			-65.00		138.41E-06		#1456
			-60.00		44.080E-06		#1425
			-55.00		38.636E-06		#1394
			-50.00		156.11E-06		#1363
			-45.00		-61.788E-06		#1332
			-40.00		271.83E-06		#1301
			-35.00		157.42E-06		#1270
			-30.00		-112.57E-06		#1212
			-25.00		404.07E-06		#1140
			-20.00		345.90E-06		#1068
			-15.00		215.62E-06		#996
			-10.00		531.45E-06		#924
			-5.00		642.55E-06		#852
			0.00		350.01E-06		#780
			5.00		451.84E-06		#708
			10.00		431.51E-06		#636
			15.00		627.25E-06		#564
			20.00		226.70E-06		#492
			25.00		223.57E-06		#420
			30.00		321.38E-06		#348
			35.00		-87.861E-06		#276
			40.00		153.63E-06		#245
			45.00		33.167E-06		#214
			50.00		279.84E-06		#183
			55.00		294.46E-06		#152
			60.00		171.94E-06		#121
			65.00		343.38E-06		#90
			70.00		87.420E-06		#59
			75.00		437.17E-06		#28
		END_DATA
	END_SCAN  4
	BEGIN_SCAN  5
		TASK_NAME=DOSE
		GROUP_NAME=LR_47.2
		PROGRAM=BeamAdjust 2.3.0.25
		COMMENT=G000, E221_c-dhex3.6_4
		MEAS_DATE=08-Jun-2024 21:56:10
		LINAC=HIT
		MODALITY=P
		INPLANE_AXIS_DIR=TARGET_GUN
		CROSSPLANE_AXIS_DIR=LEFT_RIGHT
		DEPTH_AXIS_DIR=UP_DOWN
		ENERGY=0.00
		SSD=0.00
		FIELD_INPLANE=50.00
		FIELD_CROSSPLANE=50.00
		FIELD_TYPE=RECTANGULAR
		GANTRY=0.00
		GANTRY_UPRIGHT_POSITION=0
		GANTRY_ROTATION=CW
		COLL_ANGLE=90.00
		SCAN_DEVICE=OCTAVIUS_1600_XDR
		ELECTROMETER=DETECTOR_INTERFACE
		ELECTROMETER_SN=5987
		DETECTOR=OCTAVIUS_1600_XDR
		DETECTOR_SN=191760
		FILTER=FF
		SCAN_CURVETYPE=CROSSPLANE_PROFILE
		SCAN_DEPTH=0.00
		SCAN_OFFAXIS_INPLANE=-55.00
		SCAN_ANGLE=0.00
		SCAN_DIAGONAL=NOT_DIAGONAL
		MEAS_PRESET=TIME_PRESET
		MEAS_TIME=47.200
		MEAS_UNIT=GY
		PRESSURE=995.30
		TEMPERATURE=19.10
		NORM_TEMPERATURE=20.00
		CORRECTION_FACTOR=1.1270
		CALIBRATION_FILE=C:\Users\Public\Documents\PTW\Common Files\Calibration Files\230554201_OCTAVIUS1600XDR_191760.cal
		CORRECTIONS=AIR_DENSITY_CORR;FACTOR_CORR;
		BEGIN_DATA
			-75.00		5.4956E-06		#1517
			-70.00		188.63E-06		#1486
			-65.00		-59.072E-06		#1455
			-60.00		-10.032E-06		#1424
			-55.00		70.582E-06		#1393
			-50.00		38.006E-06		#1362
			-45.00		289.24E-06		#1331
			-40.00		224.81E-06		#1300
			-35.00		477.46E-06		#1269
			-30.00		375.15E-06		#1211
			-25.00		525.81E-06		#1139
			-20.00		502.09E-06		#1067
			-15.00		320.15E-06		#995
			-10.00		328.31E-06		#923
			-5.00		389.06E-06		#851
			0.00		273.53E-06		#779
			5.00		372.89E-06		#707
			10.00		383.08E-06		#635
			15.00		200.94E-06		#563
			20.00		490.23E-06		#491
			25.00		206.72E-06		#419
			30.00		302.69E-06		#347
			35.00		183.56E-06		#275
			40.00		-49.569E-06		#244
			45.00		507.64E-06		#213
			50.00		69.778E-06		#182
			55.00		216.53E-06		#151
			60.00		-217.34E-06		#120
			65.00		210.42E-06		#89
			70.00		-51.944E-06		#58
			75.00		-316.20E-06		#27
		END_DATA
	END_SCAN  5
	BEGIN_SCAN  6
		TASK_NAME=DOSE
		GROUP_NAME=LR_47.2
		PROGRAM=BeamAdjust 2.3.0.25
		COMMENT=G000, E221_c-dhex3.6_4
		MEAS_DATE=08-Jun-2024 21:56:10
		LINAC=HIT
		MODALITY=P
		INPLANE_AXIS_DIR=TARGET_GUN
		CROSSPLANE_AXIS_DIR=LEFT_RIGHT
		DEPTH_AXIS_DIR=UP_DOWN
		ENERGY=0.00
		SSD=0.00
		FIELD_INPLANE=50.00
		FIELD_CROSSPLANE=50.00
		FIELD_TYPE=RECTANGULAR
		GANTRY=0.00
		GANTRY_UPRIGHT_POSITION=0
		GANTRY_ROTATION=CW
		COLL_ANGLE=90.00
		SCAN_DEVICE=OCTAVIUS_1600_XDR
		ELECTROMETER=DETECTOR_INTERFACE
		ELECTROMETER_SN=5987
		DETECTOR=OCTAVIUS_1600_XDR
		DETECTOR_SN=191760
		FILTER=FF
		SCAN_CURVETYPE=CROSSPLANE_PROFILE
		SCAN_DEPTH=0.00
		SCAN_OFFAXIS_INPLANE=-50.00
		SCAN_ANGLE=0.00
		SCAN_DIAGONAL=NOT_DIAGONAL
		MEAS_PRESET=TIME_PRESET
		MEAS_TIME=47.200
		MEAS_UNIT=GY
		PRESSURE=995.30
		TEMPERATURE=19.10
		NORM_TEMPERATURE=20.00
		CORRECTION_FACTOR=1.1270
		CALIBRATION_FILE=C:\Users\Public\Documents\PTW\Common Files\Calibration Files\230554201_OCTAVIUS1600XDR_191760.cal
		CORRECTIONS=AIR_DENSITY_CORR;FACTOR_CORR;
		BEGIN_DATA
			-75.00		89.700E-06		#1516
			-70.00		-157.43E-06		#1485
			-65.00		-174.94E-06		#1454
			-60.00		305.47E-06		#1423
			-55.00		55.172E-06		#1392
			-50.00		214.57E-06		#1361
			-45.00		364.52E-06		#1330
			-40.00		548.85E-06		#1299
			-35.00		428.77E-06		#1268
			-30.00		795.33E-06		#1210
			-25.00		562.21E-06		#1138
			-20.00		725.91E-06		#1066
			-15.00		598.44E-06		#994
			-10.00		602.54E-06		#922
			-5.00		940.03E-06		#850
			0.00		811.66E-06		#778
			5.00		947.70E-06		#706
			10.00		876.47E-06		#634
			15.00		786.25E-06		#562
			20.00		936.79E-06		#490
			25.00		741.73E-06		#418
			30.00		549.78E-06		#346
			35.00		459.09E-06		#274
			40.00		438.06E-06		#243
			45.00		75.733E-06		#212
			50.00		-40.390E-06		#181
			55.00		219.80E-06		#150
			60.00		31.180E-06		#119
			65.00		18.593E-06		#88
			70.00		287.95E-06		#57
			75.00		-291.43E-06		#26
		END_DATA
	END_SCAN  6
	BEGIN_SCAN  7
		TASK_NAME=DOSE
		GROUP_NAME=LR_47.2
		PROGRAM=BeamAdjust 2.3.0.25
		COMMENT=G000, E221_c-dhex3.6_4
		MEAS_DATE=08-Jun-2024 21:56:10
		LINAC=HIT
		MODALITY=P
		INPLANE_AXIS_DIR=TARGET_GUN
		CROSSPLANE_AXIS_DIR=LEFT_RIGHT
		DEPTH_AXIS_DIR=UP_DOWN
		ENERGY=0.00
		SSD=0.00
		FIELD_INPLANE=50.00
		FIELD_CROSSPLANE=50.00
		FIELD_TYPE=RECTANGULAR
		GANTRY=0.00
		GANTRY_UPRIGHT_POSITION=0
		GANTRY_ROTATION=CW
		COLL_ANGLE=90.00
		SCAN_DEVICE=OCTAVIUS_1600_XDR
		ELECTROMETER=DETECTOR_INTERFACE
		ELECTROMETER_SN=5987
		DETECTOR=OCTAVIUS_1600_XDR
		DETECTOR_SN=191760
		FILTER=FF
		SCAN_CURVETYPE=CROSSPLANE_PROFILE
		SCAN_DEPTH=0.00
		SCAN_OFFAXIS_INPLANE=-45.00
		SCAN_ANGLE=0.00
		SCAN_DIAGONAL=NOT_DIAGONAL
		MEAS_PRESET=TIME_PRESET
		MEAS_TIME=47.200
		MEAS_UNIT=GY
		PRESSURE=995.30
		TEMPERATURE=19.10
		NORM_TEMPERATURE=20.00
		CORRECTION_FACTOR=1.1270
		CALIBRATION_FILE=C:\Users\Public\Documents\PTW\Common Files\Calibration Files\230554201_OCTAVIUS1600XDR_191760.cal
		CORRECTIONS=AIR_DENSITY_CORR;FACTOR_CORR;
		BEGIN_DATA
			-75.00		272.27E-06		#1515
			-70.00		-94.086E-06		#1484
			-65.00		197.11E-06		#1453
			-60.00		-167.15E-06		#1422
			-55.00		125.80E-06		#1391
			-50.00		359.98E-06		#1360
			-45.00		509.63E-06		#1329
			-40.00		742.53E-06		#1298
			-35.00		1.2634E-03		#1267
			-30.00		2.2909E-03		#1209
			-25.00		2.2661E-03		#1137
			-20.00		2.4389E-03		#1065
			-15.00		2.8142E-03		#993
			-10.00		2.6501E-03		#921
			-5.00		3.0346E-03		#849
			0.00		2.8510E-03		#777
			5.00		3.0966E-03		#705
			10.00		2.7578E-03		#633
			15.00		2.7001E-03		#561
			20.00		2.6647E-03		#489
			25.00		2.7440E-03		#417
			30.00		2.2956E-03		#345
			35.00		1.5456E-03		#273
			40.00		772.01E-06		#242
			45.00		479.10E-06		#211
			50.00		249.74E-06		#180
			55.00		28.639E-06		#149
			60.00		260.04E-06		#118
			65.00		408.31E-06		#87
			70.00		81.514E-06		#56
			75.00		-243.83E-06		#25
		END_DATA
	END_SCAN  7
	BEGIN_SCAN  8
		TASK_NAME=DOSE
		GROUP_NAME=LR_47.2
		PROGRAM=BeamAdjust 2.3.0.25
		COMMENT=G000, E221_c-dhex3.6_4
		MEAS_DATE=08-Jun-2024 21:56:10
		LINAC=HIT
		MODALITY=P
		INPLANE_AXIS_DIR=TARGET_GUN
		CROSSPLANE_AXIS_DIR=LEFT_RIGHT
		DEPTH_AXIS_DIR=UP_DOWN
		ENERGY=0.00
		SSD=0.00
		FIELD_INPLANE=50.00
		FIELD_CROSSPLANE=50.00
		FIELD_TYPE=RECTANGULAR
		GANTRY=0.00
		GANTRY_UPRIGHT_POSITION=0
		GANTRY_ROTATION=CW
		COLL_ANGLE=90.00
		SCAN_DEVICE=OCTAVIUS_1600_XDR
		ELECTROMETER=DETECTOR_INTERFACE
		ELECTROMETER_SN=5987
		DETECTOR=OCTAVIUS_1600_XDR
		DETECTOR_SN=191760
		FILTER=FF
		SCAN_CURVETYPE=CROSSPLANE_PROFILE
		SCAN_DEPTH=0.00
		SCAN_OFFAXIS_INPLANE=-40.00
		SCAN_ANGLE=0.00
		SCAN_DIAGONAL=NOT_DIAGONAL
		MEAS_PRESET=TIME_PRESET
		MEAS_TIME=47.200
		MEAS_UNIT=GY
		PRESSURE=995.30
		TEMPERATURE=19.10
		NORM_TEMPERATURE=20.00
		CORRECTION_FACTOR=1.1270
		CALIBRATION_FILE=C:\Users\Public\Documents\PTW\Common Files\Calibration Files\230554201_OCTAVIUS1600XDR_191760.cal
		CORRECTIONS=AIR_DENSITY_CORR;FACTOR_CORR;
		BEGIN_DATA
			-75.00		-172.56E-06		#1514
			-70.00		142.83E-06		#1483
			-65.00		168.96E-06		#1452
			-60.00		-30.352E-06		#1421
			-55.00		472.19E-06		#1390
			-50.00		641.41E-06		#1359
			-45.00		1.4783E-03		#1328
			-40.00		7.7635E-03		#1297
			-35.00		19.885E-03		#1266
			-30.00		27.080E-03		#1208
			-25.00		28.816E-03		#1136
			-20.00		28.486E-03		#1064
			-15.00		29.544E-03		#992
			-10.00		29.758E-03		#920
			-5.00		29.792E-03		#848
			0.00		29.353E-03		#776
			5.00		30.219E-03		#704
			10.00		31.016E-03		#632
			15.00		30.817E-03		#560
			20.00		30.845E-03		#488
			25.00		30.778E-03		#416
			30.00		27.902E-03		#344
			35.00		16.999E-03		#272
			40.00		4.5625E-03		#241
			45.00		1.0246E-03		#210
			50.00		-103.68E-06		#179
			55.00		502.16E-06		#148
			60.00		45.818E-06		#117
			65.00		138.23E-06		#86
			70.00		161.13E-06		#55
			75.00		398.11E-06		#24
		END_DATA
	END_SCAN  8
	BEGIN_SCAN  9
		TASK_NAME=DOSE
		GROUP_NAME=LR_47.2
		PROGRAM=BeamAdjust 2.3.0.25
		COMMENT=G000, E221_c-dhex3.6_4
		MEAS_DATE=08-Jun-2024 21:56:10
		LINAC=HIT
		MODALITY=P
		INPLANE_AXIS_DIR=TARGET_GUN
		CROSSPLANE_AXIS_DIR=LEFT_RIGHT
		DEPTH_AXIS_DIR=UP_DOWN
		ENERGY=0.00
		SSD=0.00
		FIELD_INPLANE=50.00
		FIELD_CROSSPLANE=50.00
		FIELD_TYPE=RECTANGULAR
		GANTRY=0.00
		GANTRY_UPRIGHT_POSITION=0
		GANTRY_ROTATION=CW
		COLL_ANGLE=90.00
		SCAN_DEVICE=OCTAVIUS_1600_XDR
		ELECTROMETER=DETECTOR_INTERFACE
		ELECTROMETER_SN=5987
		DETECTOR=OCTAVIUS_1600_XDR
		DETECTOR_SN=191760
		FILTER=FF
		SCAN_CURVETYPE=CROSSPLANE_PROFILE
		SCAN_DEPTH=0.00
		SCAN_OFFAXIS_INPLANE=-35.00
		SCAN_ANGLE=0.00
		SCAN_DIAGONAL=NOT_DIAGONAL
		MEAS_PRESET=TIME_PRESET
		MEAS_TIME=47.200
		MEAS_UNIT=GY
		PRESSURE=995.30
		TEMPERATURE=19.10
		NORM_TEMPERATURE=20.00
		CORRECTION_FACTOR=1.1270
		CALIBRATION_FILE=C:\Users\Public\Documents\PTW\Common Files\Calibration Files\230554201_OCTAVIUS1600XDR_191760.cal
		CORRECTIONS=AIR_DENSITY_CORR;FACTOR_CORR;
		BEGIN_DATA
			-75.00		269.48E-06		#1513
			-70.00		-186.25E-06		#1482
			-65.00		77.249E-06		#1451
			-60.00		126.25E-06		#1420
			-55.00		339.90E-06		#1389
			-50.00		798.47E-06		#1358
			-45.00		4.5367E-03		#1327
			-40.00		23.119E-03		#1296
			-35.00		55.719E-03		#1265
			-30.00		74.256E-03		#1207
			-25.00		77.277E-03		#1135
			-20.00		78.297E-03		#1063
			-15.00		78.787E-03		#991
			-10.00		78.920E-03		#919
			-5.00		78.504E-03		#847
			0.00		78.293E-03		#775
			5.00		79.124E-03		#703
			10.00		80.162E-03		#631
			15.00		78.890E-03		#559
			20.00		79.607E-03		#487
			25.00		79.356E-03		#415
			30.00		69.534E-03		#343
			35.00		38.879E-03		#271
			40.00		9.4419E-03		#240
			45.00		1.0055E-03		#209
			50.00		99.799E-06		#178
			55.00		171.72E-06		#147
			60.00		368.76E-06		#116
			65.00		-29.272E-06		#85
			70.00		191.00E-06		#54
			75.00		-74.952E-06		#23
		END_DATA
	END_SCAN  9
	BEGIN_SCAN  10
		TASK_NAME=DOSE
		GROUP_NAME=LR_47.2
		PROGRAM=BeamAdjust 2.3.0.25
		COMMENT=G000, E221_c-dhex3.6_4
		MEAS_DATE=08-Jun-2024 21:56:10
		LINAC=HIT
		MODALITY=P
		INPLANE_AXIS_DIR=TARGET_GUN
		CROSSPLANE_AXIS_DIR=LEFT_RIGHT
		DEPTH_AXIS_DIR=UP_DOWN
		ENERGY=0.00
		SSD=0.00
		FIELD_INPLANE=50.00
		FIELD_CROSSPLANE=50.00
		FIELD_TYPE=RECTANGULAR
		GANTRY=0.00
		GANTRY_UPRIGHT_POSITION=0
		GANTRY_ROTATION=CW
		COLL_ANGLE=90.00
		SCAN_DEVICE=OCTAVIUS_1600_XDR
		ELECTROMETER=DETECTOR_INTERFACE
		ELECTROMETER_SN=5987
		DETECTOR=OCTAVIUS_1600_XDR
		DETECTOR_SN=191760
		FILTER=FF
		SCAN_CURVETYPE=CROSSPLANE_PROFILE
		SCAN_DEPTH=0.00
		SCAN_OFFAXIS_INPLANE=-32.50
		SCAN_ANGLE=0.00
		SCAN_DIAGONAL=NOT_DIAGONAL
		MEAS_PRESET=TIME_PRESET
		MEAS_TIME=47.200
		MEAS_UNIT=GY
		PRESSURE=995.30
		TEMPERATURE=19.10
		NORM_TEMPERATURE=20.00
		CORRECTION_FACTOR=1.1270
		CALIBRATION_FILE=C:\Users\Public\Documents\PTW\Common Files\Calibration Files\230554201_OCTAVIUS1600XDR_191760.cal
		CORRECTIONS=AIR_DENSITY_CORR;FACTOR_CORR;
		BEGIN_DATA
			-32.50		86.276E-03		#1242
			-30.00		93.913E-03		#1206
			-27.50		97.165E-03		#1170
			-25.00		97.950E-03		#1134
			-22.50		98.078E-03		#1098
			-20.00		98.565E-03		#1062
			-17.50		99.509E-03		#1026
			-15.00		99.143E-03		#990
			-12.50		99.322E-03		#954
			-10.00		99.108E-03		#918
			-7.50		98.553E-03		#882
			-5.00		98.636E-03		#846
			-2.50		98.593E-03		#810
			0.00		98.383E-03		#774
			2.50		98.667E-03		#738
			5.00		100.31E-03		#702
			7.50		99.292E-03		#666
			10.00		100.56E-03		#630
			12.50		100.58E-03		#594
			15.00		99.124E-03		#558
			17.50		100.38E-03		#522
			20.00		99.466E-03		#486
			22.50		100.05E-03		#450
			25.00		99.024E-03		#414
			27.50		95.165E-03		#378
			30.00		86.311E-03		#342
			32.50		69.277E-03		#306
		END_DATA
	END_SCAN  10
	BEGIN_SCAN  11
		TASK_NAME=DOSE
		GROUP_NAME=LR_47.2
		PROGRAM=BeamAdjust 2.3.0.25
		COMMENT=G000, E221_c-dhex3.6_4
		MEAS_DATE=08-Jun-2024 21:56:10
		LINAC=HIT
		MODALITY=P
		INPLANE_AXIS_DIR=TARGET_GUN
		CROSSPLANE_AXIS_DIR=LEFT_RIGHT
		DEPTH_AXIS_DIR=UP_DOWN
		ENERGY=0.00
		SSD=0.00
		FIELD_INPLANE=50.00
		FIELD_CROSSPLANE=50.00
		FIELD_TYPE=RECTANGULAR
		GANTRY=0.00
		GANTRY_UPRIGHT_POSITION=0
		GANTRY_ROTATION=CW
		COLL_ANGLE=90.00
		SCAN_DEVICE=OCTAVIUS_1600_XDR
		ELECTROMETER=DETECTOR_INTERFACE
		ELECTROMETER_SN=5987
		DETECTOR=OCTAVIUS_1600_XDR
		DETECTOR_SN=191760
		FILTER=FF
		SCAN_CURVETYPE=CROSSPLANE_PROFILE
		SCAN_DEPTH=0.00
		SCAN_OFFAXIS_INPLANE=-30.00
		SCAN_ANGLE=0.00
		SCAN_DIAGONAL=NOT_DIAGONAL
		MEAS_PRESET=TIME_PRESET
		MEAS_TIME=47.200
		MEAS_UNIT=GY
		PRESSURE=995.30
		TEMPERATURE=19.10
		NORM_TEMPERATURE=20.00
		CORRECTION_FACTOR=1.1270
		CALIBRATION_FILE=C:\Users\Public\Documents\PTW\Common Files\Calibration Files\230554201_OCTAVIUS1600XDR_191760.cal
		CORRECTIONS=AIR_DENSITY_CORR;FACTOR_CORR;
		BEGIN_DATA
			-75.00		112.67E-06		#1512
			-70.00		165.40E-06		#1481
			-65.00		132.84E-06		#1450
			-60.00		148.22E-06		#1419
			-55.00		526.64E-06		#1388
			-50.00		767.15E-06		#1357
			-45.00		6.4763E-03		#1326
			-40.00		36.001E-03		#1295
			-35.00		83.363E-03		#1264
			-32.50		100.02E-03		#1241
			-30.00		108.53E-03		#1205
			-27.50		110.60E-03		#1169
			-25.00		112.86E-03		#1133
			-22.50		113.48E-03		#1097
			-20.00		113.68E-03		#1061
			-17.50		114.15E-03		#1025
			-15.00		113.72E-03		#989
			-12.50		113.97E-03		#953
			-10.00		112.69E-03		#917
			-7.50		112.93E-03		#881
			-5.00		112.54E-03		#845
			-2.50		112.45E-03		#809
			0.00		112.70E-03		#773
			2.50		114.03E-03		#737
			5.00		113.34E-03		#701
			7.50		114.78E-03		#665
			10.00		113.97E-03		#629
			12.50		114.47E-03		#593
			15.00		113.83E-03		#557
			17.50		113.35E-03		#521
			20.00		113.39E-03		#485
			22.50		113.20E-03		#449
			25.00		112.38E-03		#413
			27.50		107.77E-03		#377
			30.00		96.514E-03		#341
			32.50		77.597E-03		#305
			35.00		51.687E-03		#270
			40.00		12.547E-03		#239
			45.00		1.2266E-03		#208
			50.00		434.19E-06		#177
			55.00		136.82E-06		#146
			60.00		156.29E-06		#115
			65.00		-117.87E-06		#84
			70.00		458.75E-06		#53
			75.00		-574.23E-06		#22
		END_DATA
	END_SCAN  11
	BEGIN_SCAN  12
		TASK_NAME=DOSE
		GROUP_NAME=LR_47.2
		PROGRAM=BeamAdjust 2.3.0.25
		COMMENT=G000, E221_c-dhex3.6_4
		MEAS_DATE=08-Jun-2024 21:56:10
		LINAC=HIT
		MODALITY=P
		INPLANE_AXIS_DIR=TARGET_GUN
		CROSSPLANE_AXIS_DIR=LEFT_RIGHT
		DEPTH_AXIS_DIR=UP_DOWN
		ENERGY=0.00
		SSD=0.00
		FIELD_INPLANE=50.00
		FIELD_CROSSPLANE=50.00
		FIELD_TYPE=RECTANGULAR
		GANTRY=0.00
		GANTRY_UPRIGHT_POSITION=0
		GANTRY_ROTATION=CW
		COLL_ANGLE=90.00
		SCAN_DEVICE=OCTAVIUS_1600_XDR
		ELECTROMETER=DETECTOR_INTERFACE
		ELECTROMETER_SN=5987
		DETECTOR=OCTAVIUS_1600_XDR
		DETECTOR_SN=191760
		FILTER=FF
		SCAN_CURVETYPE=CROSSPLANE_PROFILE
		SCAN_DEPTH=0.00
		SCAN_OFFAXIS_INPLANE=-27.50
		SCAN_ANGLE=0.00
		SCAN_DIAGONAL=NOT_DIAGONAL
		MEAS_PRESET=TIME_PRESET
		MEAS_TIME=47.200
		MEAS_UNIT=GY
		PRESSURE=995.30
		TEMPERATURE=19.10
		NORM_TEMPERATURE=20.00
		CORRECTION_FACTOR=1.1270
		CALIBRATION_FILE=C:\Users\Public\Documents\PTW\Common Files\Calibration Files\230554201_OCTAVIUS1600XDR_191760.cal
		CORRECTIONS=AIR_DENSITY_CORR;FACTOR_CORR;
		BEGIN_DATA
			-32.50		105.13E-03		#1240
			-30.00		114.37E-03		#1204
			-27.50		116.99E-03		#1168
			-25.00		118.81E-03		#1132
			-22.50		119.19E-03		#1096
			-20.00		119.88E-03		#1060
			-17.50		119.33E-03		#1024
			-15.00		120.27E-03		#988
			-12.50		119.33E-03		#952
			-10.00		119.09E-03		#916
			-7.50		118.86E-03		#880
			-5.00		118.42E-03		#844
			-2.50		118.26E-03		#808
			0.00		118.37E-03		#772
			2.50		119.51E-03		#736
			5.00		119.34E-03		#700
			7.50		120.36E-03		#664
			10.00		120.15E-03		#628
			12.50		119.60E-03		#592
			15.00		118.91E-03		#556
			17.50		118.42E-03		#520
			20.00		118.91E-03		#484
			22.50		117.80E-03		#448
			25.00		117.43E-03		#412
			27.50		112.38E-03		#376
			30.00		100.86E-03		#340
			32.50		80.576E-03		#304
		END_DATA
	END_SCAN  12
	BEGIN_SCAN  13
		TASK_NAME=DOSE
		GROUP_NAME=LR_47.2
		PROGRAM=BeamAdjust 2.3.0.25
		COMMENT=G000, E221_c-dhex3.6_4
		MEAS_DATE=08-Jun-2024 21:56:10
		LINAC=HIT
		MODALITY=P
		INPLANE_AXIS_DIR=TARGET_GUN
		CROSSPLANE_AXIS_DIR=LEFT_RIGHT
		DEPTH_AXIS_DIR=UP_DOWN
		ENERGY=0.00
		SSD=0.00
		FIELD_INPLANE=50.00
		FIELD_CROSSPLANE=50.00
		FIELD_TYPE=RECTANGULAR
		GANTRY=0.00
		GANTRY_UPRIGHT_POSITION=0
		GANTRY_ROTATION=CW
		COLL_ANGLE=90.00
		SCAN_DEVICE=OCTAVIUS_1600_XDR
		ELECTROMETER=DETECTOR_INTERFACE
		ELECTROMETER_SN=5987
		DETECTOR=OCTAVIUS_1600_XDR
		DETECTOR_SN=191760
		FILTER=FF
		SCAN_CURVETYPE=CROSSPLANE_PROFILE
		SCAN_DEPTH=0.00
		SCAN_OFFAXIS_INPLANE=-25.00
		SCAN_ANGLE=0.00
		SCAN_DIAGONAL=NOT_DIAGONAL
		MEAS_PRESET=TIME_PRESET
		MEAS_TIME=47.200
		MEAS_UNIT=GY
		PRESSURE=995.30
		TEMPERATURE=19.10
		NORM_TEMPERATURE=20.00
		CORRECTION_FACTOR=1.1270
		CALIBRATION_FILE=C:\Users\Public\Documents\PTW\Common Files\Calibration Files\230554201_OCTAVIUS1600XDR_191760.cal
		CORRECTIONS=AIR_DENSITY_CORR;FACTOR_CORR;
		BEGIN_DATA
			-75.00		83.021E-06		#1511
			-70.00		14.000E-06		#1480
			-65.00		210.59E-06		#1449
			-60.00		389.49E-06		#1418
			-55.00		241.79E-06		#1387
			-50.00		1.3689E-03		#1356
			-45.00		7.2190E-03		#1325
			-40.00		38.555E-03		#1294
			-35.00		88.909E-03		#1263
			-32.50		106.32E-03		#1239
			-30.00		115.78E-03		#1203
			-27.50		118.69E-03		#1167
			-25.00		120.07E-03		#1131
			-22.50		120.33E-03		#1095
			-20.00		120.82E-03		#1059
			-17.50		121.95E-03		#1023
			-15.00		121.01E-03		#987
			-12.50		120.75E-03		#951
			-10.00		120.47E-03		#915
			-7.50		120.10E-03		#879
			-5.00		120.09E-03		#843
			-2.50		119.27E-03		#807
			0.00		119.36E-03		#771
			2.50		121.12E-03		#735
			5.00		120.32E-03		#699
			7.50		120.63E-03		#663
			10.00		121.33E-03		#627
			12.50		121.10E-03		#591
			15.00		120.28E-03		#555
			17.50		120.04E-03		#519
			20.00		120.09E-03		#483
			22.50		119.70E-03		#447
			25.00		119.01E-03		#411
			27.50		112.71E-03		#375
			30.00		102.48E-03		#339
			32.50		81.540E-03		#303
			35.00		54.562E-03		#269
			40.00		12.799E-03		#238
			45.00		2.1545E-03		#207
			50.00		505.08E-06		#176
			55.00		577.44E-06		#145
			60.00		155.09E-06		#114
			65.00		279.83E-06		#83
			70.00		176.04E-06		#52
			75.00		-17.716E-06		#21
		END_DATA
	END_SCAN  13
	BEGIN_SCAN  14
		TASK_NAME=DOSE
		GROUP_NAME=LR_47.2
		PROGRAM=BeamAdjust 2.3.0.25
		COMMENT=G000, E221_c-dhex3.6_4
		MEAS_DATE=08-Jun-2024 21:56:10
		LINAC=HIT
		MODALITY=P
		INPLANE_AXIS_DIR=TARGET_GUN
		CROSSPLANE_AXIS_DIR=LEFT_RIGHT
		DEPTH_AXIS_DIR=UP_DOWN
		ENERGY=0.00
		SSD=0.00
		FIELD_INPLANE=50.00
		FIELD_CROSSPLANE=50.00
		FIELD_TYPE=RECTANGULAR
		GANTRY=0.00
		GANTRY_UPRIGHT_POSITION=0
		GANTRY_ROTATION=CW
		COLL_ANGLE=90.00
		SCAN_DEVICE=OCTAVIUS_1600_XDR
		ELECTROMETER=DETECTOR_INTERFACE
		ELECTROMETER_SN=5987
		DETECTOR=OCTAVIUS_1600_XDR
		DETECTOR_SN=191760
		FILTER=FF
		SCAN_CURVETYPE=CROSSPLANE_PROFILE
		SCAN_DEPTH=0.00
		SCAN_OFFAXIS_INPLANE=-22.50
		SCAN_ANGLE=0.00
		SCAN_DIAGONAL=NOT_DIAGONAL
		MEAS_PRESET=TIME_PRESET
		MEAS_TIME=47.200
		MEAS_UNIT=GY
		PRESSURE=995.30
		TEMPERATURE=19.10
		NORM_TEMPERATURE=20.00
		CORRECTION_FACTOR=1.1270
		CALIBRATION_FILE=C:\Users\Public\Documents\PTW\Common Files\Calibration Files\230554201_OCTAVIUS1600XDR_191760.cal
		CORRECTIONS=AIR_DENSITY_CORR;FACTOR_CORR;
		BEGIN_DATA
			-32.50		106.03E-03		#1238
			-30.00		115.87E-03		#1202
			-27.50		118.86E-03		#1166
			-25.00		120.47E-03		#1130
			-22.50		120.57E-03		#1094
			-20.00		121.82E-03		#1058
			-17.50		121.64E-03		#1022
			-15.00		120.71E-03		#986
			-12.50		120.28E-03		#950
			-10.00		121.31E-03		#914
			-7.50		120.25E-03		#878
			-5.00		119.88E-03		#842
			-2.50		119.67E-03		#806
			0.00		120.22E-03		#770
			2.50		121.18E-03		#734
			5.00		121.29E-03		#698
			7.50		121.42E-03		#662
			10.00		121.19E-03		#626
			12.50		121.58E-03		#590
			15.00		120.63E-03		#554
			17.50		119.96E-03		#518
			20.00		120.07E-03		#482
			22.50		120.41E-03		#446
			25.00		118.85E-03		#410
			27.50		114.07E-03		#374
			30.00		102.40E-03		#338
			32.50		81.903E-03		#302
		END_DATA
	END_SCAN  14
	BEGIN_SCAN  15
		TASK_NAME=DOSE
		GROUP_NAME=LR_47.2
		PROGRAM=BeamAdjust 2.3.0.25
		COMMENT=G000, E221_c-dhex3.6_4
		MEAS_DATE=08-Jun-2024 21:56:10
		LINAC=HIT
		MODALITY=P
		INPLANE_AXIS_DIR=TARGET_GUN
		CROSSPLANE_AXIS_DIR=LEFT_RIGHT
		DEPTH_AXIS_DIR=UP_DOWN
		ENERGY=0.00
		SSD=0.00
		FIELD_INPLANE=50.00
		FIELD_CROSSPLANE=50.00
		FIELD_TYPE=RECTANGULAR
		GANTRY=0.00
		GANTRY_UPRIGHT_POSITION=0
		GANTRY_ROTATION=CW
		COLL_ANGLE=90.00
		SCAN_DEVICE=OCTAVIUS_1600_XDR
		ELECTROMETER=DETECTOR_INTERFACE
		ELECTROMETER_SN=5987
		DETECTOR=OCTAVIUS_1600_XDR
		DETECTOR_SN=191760
		FILTER=FF
		SCAN_CURVETYPE=CROSSPLANE_PROFILE
		SCAN_DEPTH=0.00
		SCAN_OFFAXIS_INPLANE=-20.00
		SCAN_ANGLE=0.00
		SCAN_DIAGONAL=NOT_DIAGONAL
		MEAS_PRESET=TIME_PRESET
		MEAS_TIME=47.200
		MEAS_UNIT=GY
		PRESSURE=995.30
		TEMPERATURE=19.10
		NORM_TEMPERATURE=20.00
		CORRECTION_FACTOR=1.1270
		CALIBRATION_FILE=C:\Users\Public\Documents\PTW\Common Files\Calibration Files\230554201_OCTAVIUS1600XDR_191760.cal
		CORRECTIONS=AIR_DENSITY_CORR;FACTOR_CORR;
		BEGIN_DATA
			-75.00		443.88E-06		#1510
			-70.00		343.56E-06		#1479
			-65.00		386.49E-06		#1448
			-60.00		101.62E-06		#1417
			-55.00		331.09E-06		#1386
			-50.00		599.86E-06		#1355
			-45.00		7.4173E-03		#1324
			-40.00		38.666E-03		#1293
			-35.00		88.945E-03		#1262
			-32.50		106.70E-03		#1237
			-30.00		116.35E-03		#1201
			-27.50		119.32E-03		#1165
			-25.00		121.37E-03		#1129
			-22.50		121.22E-03		#1093
			-20.00		121.82E-03		#1057
			-17.50		122.48E-03		#1021
			-15.00		122.68E-03		#985
			-12.50		121.95E-03		#949
			-10.00		121.16E-03		#913
			-7.50		121.37E-03		#877
			-5.00		120.12E-03		#841
			-2.50		120.95E-03		#805
			0.00		120.62E-03		#769
			2.50		121.76E-03		#733
			5.00		121.90E-03		#697
			7.50		122.02E-03		#661
			10.00		122.72E-03		#625
			12.50		122.73E-03		#589
			15.00		121.57E-03		#553
			17.50		121.03E-03		#517
			20.00		121.06E-03		#481
			22.50		120.70E-03		#445
			25.00		120.00E-03		#409
			27.50		113.99E-03		#373
			30.00		102.95E-03		#337
			32.50		82.928E-03		#301
			35.00		55.700E-03		#268
			40.00		13.367E-03		#237
			45.00		1.7127E-03		#206
			50.00		406.08E-06		#175
			55.00		367.74E-06		#144
			60.00		380.54E-06		#113
			65.00		162.40E-06		#82
			70.00		-201.09E-06		#51
			75.00		-89.805E-06		#20
		END_DATA
	END_SCAN  15
	BEGIN_SCAN  16
		TASK_NAME=DOSE
