BEGIN_SCAN_DATA
	FORMAT=CC-Export V1.9                  
	FILE_CREATION_DATE=08-Jun-2024 21:56:58
	LAST_MODIFIED=08-Jun-2024 21:56:58
	BEGIN_SCAN  1
		TASK_NAME=DOSE
		GROUP_NAME=LR_27.2
		PROGRAM=BeamAdjust 2.3.0.25
		COMMENT=G000, E221_c-dhex3.6_4
		MEAS_DATE=08-Jun-2024 21:56:53
		LINAC=HIT
		MODALITY=P
		INPLANE_AXIS_DIR=TARGET_GUN
		CROSSPLANE_AXIS_DIR=LEFT_RIGHT
		DEPTH_AXIS_DIR=UP_DOWN
		ENERGY=0.00
		SSD=0.00
		FIELD_INPLANE=50.00
		FIELD_CROSSPLANE=50.00
		FIELD_TYPE=RECTANGULAR
		GANTRY=0.00
		GANTRY_UPRIGHT_POSITION=0
		GANTRY_ROTATION=CW
		COLL_ANGLE=90.00
		SCAN_DEVICE=OCTAVIUS_1600_XDR
		ELECTROMETER=DETECTOR_INTERFACE
		ELECTROMETER_SN=5987
		DETECTOR=OCTAVIUS_1600_XDR
		DETECTOR_SN=191760
		FILTER=FF
		SCAN_CURVETYPE=CROSSPLANE_PROFILE
		SCAN_DEPTH=0.00
		SCAN_OFFAXIS_INPLANE=-75.00
		SCAN_ANGLE=0.00
		SCAN_DIAGONAL=NOT_DIAGONAL
		MEAS_PRESET=TIME_PRESET
		MEAS_TIME=27.200
		MEAS_UNIT=GY
		PRESSURE=995.30
		TEMPERATURE=19.10
		NORM_TEMPERATURE=20.00
		CORRECTION_FACTOR=1.1270
		CALIBRATION_FILE=C:\Users\Public\Documents\PTW\Common Files\Calibration Files\230554201_OCTAVIUS1600XDR_191760.cal
		CORRECTIONS=AIR_DENSITY_CORR;FACTOR_CORR;
		BEGIN_DATA
			-75.00		-40.431E-06		#1521
			-70.00		135.02E-06		#1490
			-65.00		80.396E-06		#1459
			-60.00		-47.566E-06		#1428
			-55.00		-25.605E-06		#1397
			-50.00		3.9523E-06		#1366
			-45.00		-6.9300E-06		#1335
			-40.00		-13.075E-06		#1304
			-35.00		-116.97E-06		#1273
			-30.00		69.041E-06		#1215
			-25.00		198.47E-06		#1143
			-20.00		-38.787E-06		#1071
			-15.00		153.14E-06		#999
			-10.00		120.90E-06		#927
			-5.00		163.41E-06		#855
			0.00		-20.813E-06		#783
			5.00		137.79E-06		#711
			10.00		-37.624E-06		#639
			15.00		135.82E-06		#567
			20.00		135.31E-06		#495
			25.00		260.35E-06		#423
			30.00		-149.14E-06		#351
			35.00		359.84E-06		#279
			40.00		287.39E-06		#248
			45.00		102.91E-06		#217
			50.00		-135.74E-06		#186
			55.00		118.15E-06		#155
			60.00		-60.413E-06		#124
			65.00		173.38E-06		#93
			70.00		163.59E-06		#62
			75.00		-202.88E-06		#31
		END_DATA
	END_SCAN  1
	BEGIN_SCAN  2
		TASK_NAME=DOSE
		GROUP_NAME=LR_27.2
		PROGRAM=BeamAdjust 2.3.0.25
		COMMENT=G000, E221_c-dhex3.6_4
		MEAS_DATE=08-Jun-2024 21:56:53
		LINAC=HIT
		MODALITY=P
		INPLANE_AXIS_DIR=TARGET_GUN
		CROSSPLANE_AXIS_DIR=LEFT_RIGHT
		DEPTH_AXIS_DIR=UP_DOWN
		ENERGY=0.00
		SSD=0.00
		FIELD_INPLANE=50.00
		FIELD_CROSSPLANE=50.00
		FIELD_TYPE=RECTANGULAR
		GANTRY=0.00
		GANTRY_UPRIGHT_POSITION=0
		GANTRY_ROTATION=CW
		COLL_ANGLE=90.00
		SCAN_DEVICE=OCTAVIUS_1600_XDR
		ELECTROMETER=DETECTOR_INTERFACE
		ELECTROMETER_SN=5987
		DETECTOR=OCTAVIUS_1600_XDR
		DETECTOR_SN=191760
		FILTER=FF
		SCAN_CURVETYPE=CROSSPLANE_PROFILE
		SCAN_DEPTH=0.00
		SCAN_OFFAXIS_INPLANE=-70.00
		SCAN_ANGLE=0.00
		SCAN_DIAGONAL=NOT_DIAGONAL
		MEAS_PRESET=TIME_PRESET
		MEAS_TIME=27.200
		MEAS_UNIT=GY
		PRESSURE=995.30
		TEMPERATURE=19.10
		NORM_TEMPERATURE=20.00
		CORRECTION_FACTOR=1.1270
		CALIBRATION_FILE=C:\Users\Public\Documents\PTW\Common Files\Calibration Files\230554201_OCTAVIUS1600XDR_191760.cal
		CORRECTIONS=AIR_DENSITY_CORR;FACTOR_CORR;
		BEGIN_DATA
			-75.00		148.42E-06		#1520
			-70.00		98.588E-06		#1489
			-65.00		-39.809E-06		#1458
			-60.00		-67.239E-06		#1427
			-55.00		28.394E-06		#1396
			-50.00		-64.187E-06		#1365
			-45.00		100.73E-06		#1334
			-40.00		-44.619E-06		#1303
			-35.00		170.82E-06		#1272
			-30.00		20.013E-06		#1214
			-25.00		-216.51E-06		#1142
			-20.00		-12.759E-06		#1070
			-15.00		21.313E-06		#998
			-10.00		-84.519E-06		#926
			-5.00		266.99E-06		#854
			0.00		166.88E-06		#782
			5.00		20.258E-06		#710
			10.00		81.502E-06		#638
			15.00		-32.797E-06		#566
			20.00		-167.72E-06		#494
			25.00		206.46E-06		#422
			30.00		104.05E-06		#350
			35.00		104.84E-06		#278
			40.00		-147.17E-06		#247
			45.00		-111.17E-06		#216
			50.00		165.48E-06		#185
			55.00		-74.365E-06		#154
			60.00		180.86E-06		#123
			65.00		-26.524E-06		#92
			70.00		24.564E-06		#61
			75.00		87.970E-06		#30
		END_DATA
	END_SCAN  2
	BEGIN_SCAN  3
		TASK_NAME=DOSE
		GROUP_NAME=LR_27.2
		PROGRAM=BeamAdjust 2.3.0.25
		COMMENT=G000, E221_c-dhex3.6_4
		MEAS_DATE=08-Jun-2024 21:56:53
		LINAC=HIT
		MODALITY=P
		INPLANE_AXIS_DIR=TARGET_GUN
		CROSSPLANE_AXIS_DIR=LEFT_RIGHT
		DEPTH_AXIS_DIR=UP_DOWN
		ENERGY=0.00
		SSD=0.00
		FIELD_INPLANE=50.00
		FIELD_CROSSPLANE=50.00
		FIELD_TYPE=RECTANGULAR
		GANTRY=0.00
		GANTRY_UPRIGHT_POSITION=0
		GANTRY_ROTATION=CW
		COLL_ANGLE=90.00
		SCAN_DEVICE=OCTAVIUS_1600_XDR
		ELECTROMETER=DETECTOR_INTERFACE
		ELECTROMETER_SN=5987
		DETECTOR=OCTAVIUS_1600_XDR
		DETECTOR_SN=191760
		FILTER=FF
		SCAN_CURVETYPE=CROSSPLANE_PROFILE
		SCAN_DEPTH=0.00
		SCAN_OFFAXIS_INPLANE=-65.00
		SCAN_ANGLE=0.00
		SCAN_DIAGONAL=NOT_DIAGONAL
		MEAS_PRESET=TIME_PRESET
		MEAS_TIME=27.200
		MEAS_UNIT=GY
		PRESSURE=995.30
		TEMPERATURE=19.10
		NORM_TEMPERATURE=20.00
		CORRECTION_FACTOR=1.1270
		CALIBRATION_FILE=C:\Users\Public\Documents\PTW\Common Files\Calibration Files\230554201_OCTAVIUS1600XDR_191760.cal
		CORRECTIONS=AIR_DENSITY_CORR;FACTOR_CORR;
		BEGIN_DATA
			-75.00		-42.799E-06		#1519
			-70.00		-147.47E-06		#1488
			-65.00		87.561E-06		#1457
			-60.00		8.1807E-06		#1426
			-55.00		-15.020E-06		#1395
			-50.00		305.65E-06		#1364
			-45.00		-63.589E-06		#1333
			-40.00		-151.69E-06		#1302
			-35.00		172.84E-06		#1271
			-30.00		79.786E-06		#1213
			-25.00		-5.0138E-06		#1141
			-20.00		12.069E-06		#1069
			-15.00		116.48E-06		#997
			-10.00		173.61E-06		#925
			-5.00		256.88E-06		#853
			0.00		32.589E-06		#781
			5.00		-16.483E-06		#709
			10.00		192.71E-06		#637
			15.00		-57.657E-06		#565
			20.00		-43.810E-06		#493
			25.00		182.06E-06		#421
			30.00		-98.633E-06		#349
			35.00		114.45E-06		#277
			40.00		1.3170E-06		#246
			45.00		182.49E-06		#215
			50.00		-23.090E-06		#184
			55.00		47.791E-06		#153
			60.00		-50.964E-06		#122
			65.00		-144.37E-06		#91
			70.00		-41.120E-06		#60
			75.00		-24.864E-06		#29
		END_DATA
	END_SCAN  3
	BEGIN_SCAN  4
		TASK_NAME=DOSE
		GROUP_NAME=LR_27.2
		PROGRAM=BeamAdjust 2.3.0.25
		COMMENT=G000, E221_c-dhex3.6_4
		MEAS_DATE=08-Jun-2024 21:56:53
		LINAC=HIT
		MODALITY=P
		INPLANE_AXIS_DIR=TARGET_GUN
		CROSSPLANE_AXIS_DIR=LEFT_RIGHT
		DEPTH_AXIS_DIR=UP_DOWN
		ENERGY=0.00
		SSD=0.00
		FIELD_INPLANE=50.00
		FIELD_CROSSPLANE=50.00
		FIELD_TYPE=RECTANGULAR
		GANTRY=0.00
		GANTRY_UPRIGHT_POSITION=0
		GANTRY_ROTATION=CW
		COLL_ANGLE=90.00
		SCAN_DEVICE=OCTAVIUS_1600_XDR
		ELECTROMETER=DETECTOR_INTERFACE
		ELECTROMETER_SN=5987
		DETECTOR=OCTAVIUS_1600_XDR
		DETECTOR_SN=191760
		FILTER=FF
		SCAN_CURVETYPE=CROSSPLANE_PROFILE
		SCAN_DEPTH=0.00
		SCAN_OFFAXIS_INPLANE=-60.00
		SCAN_ANGLE=0.00
		SCAN_DIAGONAL=NOT_DIAGONAL
		MEAS_PRESET=TIME_PRESET
		MEAS_TIME=27.200
		MEAS_UNIT=GY
		PRESSURE=995.30
		TEMPERATURE=19.10
		NORM_TEMPERATURE=20.00
		CORRECTION_FACTOR=1.1270
		CALIBRATION_FILE=C:\Users\Public\Documents\PTW\Common Files\Calibration Files\230554201_OCTAVIUS1600XDR_191760.cal
		CORRECTIONS=AIR_DENSITY_CORR;FACTOR_CORR;
		BEGIN_DATA
			-75.00		127.07E-06		#1518
			-70.00		334.59E-09		#1487
			-65.00		157.64E-06		#1456
			-60.00		-107.91E-06		#1425
			-55.00		143.99E-06		#1394
			-50.00		37.391E-06		#1363
			-45.00		-113.95E-06		#1332
			-40.00		111.69E-06		#1301
			-35.00		94.655E-06		#1270
			-30.00		-90.128E-06		#1212
			-25.00		194.77E-06		#1140
			-20.00		138.94E-06		#1068
			-15.00		183.93E-06		#996
			-10.00		179.95E-06		#924
			-5.00		256.47E-06		#852
			0.00		39.573E-06		#780
			5.00		188.91E-06		#708
			10.00		141.82E-06		#636
			15.00		133.94E-06		#564
			20.00		-367.62E-09		#492
			25.00		71.250E-06		#420
			30.00		164.38E-06		#348
			35.00		-175.06E-06		#276
			40.00		205.95E-06		#245
			45.00		18.246E-06		#214
			50.00		28.777E-06		#183
			55.00		6.3094E-06		#152
			60.00		132.80E-06		#121
			65.00		49.382E-06		#90
			70.00		-174.78E-06		#59
			75.00		173.49E-06		#28
		END_DATA
	END_SCAN  4
	BEGIN_SCAN  5
		TASK_NAME=DOSE
		GROUP_NAME=LR_27.2
		PROGRAM=BeamAdjust 2.3.0.25
		COMMENT=G000, E221_c-dhex3.6_4
		MEAS_DATE=08-Jun-2024 21:56:53
		LINAC=HIT
		MODALITY=P
		INPLANE_AXIS_DIR=TARGET_GUN
		CROSSPLANE_AXIS_DIR=LEFT_RIGHT
		DEPTH_AXIS_DIR=UP_DOWN
		ENERGY=0.00
		SSD=0.00
		FIELD_INPLANE=50.00
		FIELD_CROSSPLANE=50.00
		FIELD_TYPE=RECTANGULAR
		GANTRY=0.00
		GANTRY_UPRIGHT_POSITION=0
		GANTRY_ROTATION=CW
		COLL_ANGLE=90.00
		SCAN_DEVICE=OCTAVIUS_1600_XDR
		ELECTROMETER=DETECTOR_INTERFACE
		ELECTROMETER_SN=5987
		DETECTOR=OCTAVIUS_1600_XDR
		DETECTOR_SN=191760
		FILTER=FF
		SCAN_CURVETYPE=CROSSPLANE_PROFILE
		SCAN_DEPTH=0.00
		SCAN_OFFAXIS_INPLANE=-55.00
		SCAN_ANGLE=0.00
		SCAN_DIAGONAL=NOT_DIAGONAL
		MEAS_PRESET=TIME_PRESET
		MEAS_TIME=27.200
		MEAS_UNIT=GY
		PRESSURE=995.30
		TEMPERATURE=19.10
		NORM_TEMPERATURE=20.00
		CORRECTION_FACTOR=1.1270
		CALIBRATION_FILE=C:\Users\Public\Documents\PTW\Common Files\Calibration Files\230554201_OCTAVIUS1600XDR_191760.cal
		CORRECTIONS=AIR_DENSITY_CORR;FACTOR_CORR;
		BEGIN_DATA
			-75.00		-137.10E-06		#1517
			-70.00		-81.735E-06		#1486
			-65.00		-96.274E-06		#1455
			-60.00		84.207E-06		#1424
			-55.00		35.494E-06		#1393
			-50.00		56.186E-06		#1362
			-45.00		83.151E-06		#1331
			-40.00		-62.451E-06		#1300
			-35.00		85.269E-06		#1269
			-30.00		-41.301E-06		#1211
			-25.00		100.92E-06		#1139
			-20.00		4.4726E-06		#1067
			-15.00		141.59E-06		#995
			-10.00		78.570E-06		#923
			-5.00		-57.053E-06		#851
			0.00		10.718E-06		#779
			5.00		-31.269E-06		#707
			10.00		232.69E-06		#635
			15.00		56.701E-06		#563
			20.00		268.91E-06		#491
			25.00		15.324E-06		#419
			30.00		22.425E-06		#347
			35.00		-119.60E-06		#275
			40.00		-81.628E-06		#244
			45.00		314.44E-06		#213
			50.00		46.894E-06		#182
			55.00		23.121E-06		#151
			60.00		-185.96E-06		#120
			65.00		107.12E-06		#89
			70.00		77.918E-06		#58
			75.00		-205.60E-06		#27
		END_DATA
	END_SCAN  5
	BEGIN_SCAN  6
		TASK_NAME=DOSE
		GROUP_NAME=LR_27.2
		PROGRAM=BeamAdjust 2.3.0.25
		COMMENT=G000, E221_c-dhex3.6_4
		MEAS_DATE=08-Jun-2024 21:56:53
		LINAC=HIT
		MODALITY=P
		INPLANE_AXIS_DIR=TARGET_GUN
		CROSSPLANE_AXIS_DIR=LEFT_RIGHT
		DEPTH_AXIS_DIR=UP_DOWN
		ENERGY=0.00
		SSD=0.00
		FIELD_INPLANE=50.00
		FIELD_CROSSPLANE=50.00
		FIELD_TYPE=RECTANGULAR
		GANTRY=0.00
		GANTRY_UPRIGHT_POSITION=0
		GANTRY_ROTATION=CW
		COLL_ANGLE=90.00
		SCAN_DEVICE=OCTAVIUS_1600_XDR
		ELECTROMETER=DETECTOR_INTERFACE
		ELECTROMETER_SN=5987
		DETECTOR=OCTAVIUS_1600_XDR
		DETECTOR_SN=191760
		FILTER=FF
		SCAN_CURVETYPE=CROSSPLANE_PROFILE
		SCAN_DEPTH=0.00
		SCAN_OFFAXIS_INPLANE=-50.00
		SCAN_ANGLE=0.00
		SCAN_DIAGONAL=NOT_DIAGONAL
		MEAS_PRESET=TIME_PRESET
		MEAS_TIME=27.200
		MEAS_UNIT=GY
		PRESSURE=995.30
		TEMPERATURE=19.10
		NORM_TEMPERATURE=20.00
		CORRECTION_FACTOR=1.1270
		CALIBRATION_FILE=C:\Users\Public\Documents\PTW\Common Files\Calibration Files\230554201_OCTAVIUS1600XDR_191760.cal
		CORRECTIONS=AIR_DENSITY_CORR;FACTOR_CORR;
		BEGIN_DATA
			-75.00		-11.366E-06		#1516
			-70.00		-51.214E-06		#1485
			-65.00		-39.088E-06		#1454
			-60.00		-22.491E-06		#1423
			-55.00		-55.633E-06		#1392
			-50.00		-42.076E-06		#1361
			-45.00		61.521E-06		#1330
			-40.00		308.09E-06		#1299
			-35.00		-44.786E-06		#1268
			-30.00		241.41E-06		#1210
			-25.00		112.99E-06		#1138
			-20.00		73.441E-06		#1066
			-15.00		32.674E-06		#994
			-10.00		239.62E-06		#922
			-5.00		208.62E-06		#850
			0.00		148.46E-06		#778
			5.00		68.224E-06		#706
			10.00		355.02E-06		#634
			15.00		148.93E-06		#562
			20.00		279.11E-06		#490
			25.00		101.97E-06		#418
			30.00		-89.749E-06		#346
			35.00		-129.48E-06		#274
			40.00		-73.022E-06		#243
			45.00		11.635E-06		#212
			50.00		-145.18E-06		#181
			55.00		8.4560E-06		#150
			60.00		68.422E-06		#119
			65.00		182.00E-06		#88
			70.00		212.36E-06		#57
			75.00		-169.89E-06		#26
		END_DATA
	END_SCAN  6
	BEGIN_SCAN  7
		TASK_NAME=DOSE
		GROUP_NAME=LR_27.2
		PROGRAM=BeamAdjust 2.3.0.25
		COMMENT=G000, E221_c-dhex3.6_4
		MEAS_DATE=08-Jun-2024 21:56:53
		LINAC=HIT
		MODALITY=P
		INPLANE_AXIS_DIR=TARGET_GUN
		CROSSPLANE_AXIS_DIR=LEFT_RIGHT
		DEPTH_AXIS_DIR=UP_DOWN
		ENERGY=0.00
		SSD=0.00
		FIELD_INPLANE=50.00
		FIELD_CROSSPLANE=50.00
		FIELD_TYPE=RECTANGULAR
		GANTRY=0.00
		GANTRY_UPRIGHT_POSITION=0
		GANTRY_ROTATION=CW
		COLL_ANGLE=90.00
		SCAN_DEVICE=OCTAVIUS_1600_XDR
		ELECTROMETER=DETECTOR_INTERFACE
		ELECTROMETER_SN=5987
		DETECTOR=OCTAVIUS_1600_XDR
		DETECTOR_SN=191760
		FILTER=FF
		SCAN_CURVETYPE=CROSSPLANE_PROFILE
		SCAN_DEPTH=0.00
		SCAN_OFFAXIS_INPLANE=-45.00
		SCAN_ANGLE=0.00
		SCAN_DIAGONAL=NOT_DIAGONAL
		MEAS_PRESET=TIME_PRESET
		MEAS_TIME=27.200
		MEAS_UNIT=GY
		PRESSURE=995.30
		TEMPERATURE=19.10
		NORM_TEMPERATURE=20.00
		CORRECTION_FACTOR=1.1270
		CALIBRATION_FILE=C:\Users\Public\Documents\PTW\Common Files\Calibration Files\230554201_OCTAVIUS1600XDR_191760.cal
		CORRECTIONS=AIR_DENSITY_CORR;FACTOR_CORR;
		BEGIN_DATA
			-75.00		159.20E-06		#1515
			-70.00		-138.64E-06		#1484
			-65.00		-68.404E-06		#1453
			-60.00		-179.05E-06		#1422
			-55.00		84.340E-06		#1391
			-50.00		-56.637E-06		#1360
			-45.00		160.44E-09		#1329
			-40.00		-114.46E-06		#1298
			-35.00		-183.25E-06		#1267
			-30.00		127.65E-06		#1209
			-25.00		58.572E-06		#1137
			-20.00		38.086E-06		#1065
			-15.00		231.20E-06		#993
			-10.00		227.40E-06		#921
			-5.00		359.70E-06		#849
			0.00		347.72E-06		#777
			5.00		368.00E-06		#705
			10.00		160.92E-06		#633
			15.00		-30.690E-06		#561
			20.00		76.417E-06		#489
			25.00		154.30E-06		#417
			30.00		69.784E-06		#345
			35.00		-18.087E-06		#273
			40.00		51.053E-06		#242
			45.00		302.85E-06		#211
			50.00		119.58E-06		#180
			55.00		-71.078E-06		#149
			60.00		21.087E-06		#118
			65.00		135.72E-06		#87
			70.00		140.63E-06		#56
			75.00		22.482E-06		#25
		END_DATA
	END_SCAN  7
	BEGIN_SCAN  8
		TASK_NAME=DOSE
		GROUP_NAME=LR_27.2
		PROGRAM=BeamAdjust 2.3.0.25
		COMMENT=G000, E221_c-dhex3.6_4
		MEAS_DATE=08-Jun-2024 21:56:53
		LINAC=HIT
		MODALITY=P
		INPLANE_AXIS_DIR=TARGET_GUN
		CROSSPLANE_AXIS_DIR=LEFT_RIGHT
		DEPTH_AXIS_DIR=UP_DOWN
		ENERGY=0.00
		SSD=0.00
		FIELD_INPLANE=50.00
		FIELD_CROSSPLANE=50.00
		FIELD_TYPE=RECTANGULAR
		GANTRY=0.00
		GANTRY_UPRIGHT_POSITION=0
		GANTRY_ROTATION=CW
		COLL_ANGLE=90.00
		SCAN_DEVICE=OCTAVIUS_1600_XDR
		ELECTROMETER=DETECTOR_INTERFACE
		ELECTROMETER_SN=5987
		DETECTOR=OCTAVIUS_1600_XDR
		DETECTOR_SN=191760
		FILTER=FF
		SCAN_CURVETYPE=CROSSPLANE_PROFILE
		SCAN_DEPTH=0.00
		SCAN_OFFAXIS_INPLANE=-40.00
		SCAN_ANGLE=0.00
		SCAN_DIAGONAL=NOT_DIAGONAL
		MEAS_PRESET=TIME_PRESET
		MEAS_TIME=27.200
		MEAS_UNIT=GY
		PRESSURE=995.30
		TEMPERATURE=19.10
		NORM_TEMPERATURE=20.00
		CORRECTION_FACTOR=1.1270
		CALIBRATION_FILE=C:\Users\Public\Documents\PTW\Common Files\Calibration Files\230554201_OCTAVIUS1600XDR_191760.cal
		CORRECTIONS=AIR_DENSITY_CORR;FACTOR_CORR;
		BEGIN_DATA
			-75.00		-7.9915E-06		#1514
			-70.00		-21.453E-06		#1483
			-65.00		-14.236E-06		#1452
			-60.00		-131.77E-06		#1421
			-55.00		268.97E-06		#1390
			-50.00		86.922E-06		#1359
			-45.00		56.514E-06		#1328
			-40.00		124.61E-06		#1297
			-35.00		135.49E-06		#1266
			-30.00		280.16E-06		#1208
			-25.00		373.92E-06		#1136
			-20.00		382.30E-06		#1064
			-15.00		649.27E-06		#992
			-10.00		220.29E-06		#920
			-5.00		558.04E-06		#848
			0.00		391.74E-06		#776
			5.00		595.79E-06		#704
			10.00		676.50E-06		#632
			15.00		243.68E-06		#560
			20.00		476.59E-06		#488
			25.00		330.52E-06		#416
			30.00		222.73E-06		#344
			35.00		138.43E-06		#272
			40.00		68.234E-06		#241
			45.00		237.56E-06		#210
			50.00		-349.18E-06		#179
			55.00		325.54E-06		#148
			60.00		1.3279E-06		#117
			65.00		349.58E-06		#86
			70.00		84.783E-06		#55
			75.00		190.33E-06		#24
		END_DATA
	END_SCAN  8
	BEGIN_SCAN  9
		TASK_NAME=DOSE
		GROUP_NAME=LR_27.2
		PROGRAM=BeamAdjust 2.3.0.25
		COMMENT=G000, E221_c-dhex3.6_4
		MEAS_DATE=08-Jun-2024 21:56:53
		LINAC=HIT
		MODALITY=P
		INPLANE_AXIS_DIR=TARGET_GUN
		CROSSPLANE_AXIS_DIR=LEFT_RIGHT
		DEPTH_AXIS_DIR=UP_DOWN
		ENERGY=0.00
		SSD=0.00
		FIELD_INPLANE=50.00
		FIELD_CROSSPLANE=50.00
		FIELD_TYPE=RECTANGULAR
		GANTRY=0.00
		GANTRY_UPRIGHT_POSITION=0
		GANTRY_ROTATION=CW
		COLL_ANGLE=90.00
		SCAN_DEVICE=OCTAVIUS_1600_XDR
		ELECTROMETER=DETECTOR_INTERFACE
		ELECTROMETER_SN=5987
		DETECTOR=OCTAVIUS_1600_XDR
		DETECTOR_SN=191760
		FILTER=FF
		SCAN_CURVETYPE=CROSSPLANE_PROFILE
		SCAN_DEPTH=0.00
		SCAN_OFFAXIS_INPLANE=-35.00
		SCAN_ANGLE=0.00
		SCAN_DIAGONAL=NOT_DIAGONAL
		MEAS_PRESET=TIME_PRESET
		MEAS_TIME=27.200
		MEAS_UNIT=GY
		PRESSURE=995.30
		TEMPERATURE=19.10
		NORM_TEMPERATURE=20.00
		CORRECTION_FACTOR=1.1270
		CALIBRATION_FILE=C:\Users\Public\Documents\PTW\Common Files\Calibration Files\230554201_OCTAVIUS1600XDR_191760.cal
		CORRECTIONS=AIR_DENSITY_CORR;FACTOR_CORR;
		BEGIN_DATA
			-75.00		277.72E-06		#1513
			-70.00		-112.51E-06		#1482
			-65.00		65.771E-06		#1451
			-60.00		-40.674E-06		#1420
			-55.00		125.26E-06		#1389
			-50.00		52.920E-06		#1358
			-45.00		94.743E-06		#1327
			-40.00		304.20E-06		#1296
			-35.00		126.07E-06		#1265
			-30.00		358.73E-06		#1207
			-25.00		506.15E-06		#1135
			-20.00		855.29E-06		#1063
			-15.00		993.91E-06		#991
			-10.00		998.62E-06		#919
			-5.00		1.1496E-03		#847
			0.00		1.2296E-03		#775
			5.00		1.0724E-03		#703
			10.00		1.2272E-03		#631
			15.00		740.38E-06		#559
			20.00		752.31E-06		#487
			25.00		595.29E-06		#415
			30.00		304.25E-06		#343
			35.00		193.41E-06		#271
			40.00		91.849E-06		#240
			45.00		-88.155E-06		#209
			50.00		-154.17E-06		#178
			55.00		104.12E-06		#147
			60.00		78.157E-06		#116
			65.00		-78.218E-06		#85
			70.00		-56.949E-06		#54
			75.00		-33.583E-06		#23
		END_DATA
	END_SCAN  9
	BEGIN_SCAN  10
		TASK_NAME=DOSE
		GROUP_NAME=LR_27.2
		PROGRAM=BeamAdjust 2.3.0.25
		COMMENT=G000, E221_c-dhex3.6_4
		MEAS_DATE=08-Jun-2024 21:56:53
		LINAC=HIT
		MODALITY=P
		INPLANE_AXIS_DIR=TARGET_GUN
		CROSSPLANE_AXIS_DIR=LEFT_RIGHT
		DEPTH_AXIS_DIR=UP_DOWN
		ENERGY=0.00
		SSD=0.00
		FIELD_INPLANE=50.00
		FIELD_CROSSPLANE=50.00
		FIELD_TYPE=RECTANGULAR
		GANTRY=0.00
		GANTRY_UPRIGHT_POSITION=0
		GANTRY_ROTATION=CW
		COLL_ANGLE=90.00
		SCAN_DEVICE=OCTAVIUS_1600_XDR
		ELECTROMETER=DETECTOR_INTERFACE
		ELECTROMETER_SN=5987
		DETECTOR=OCTAVIUS_1600_XDR
		DETECTOR_SN=191760
		FILTER=FF
		SCAN_CURVETYPE=CROSSPLANE_PROFILE
		SCAN_DEPTH=0.00
		SCAN_OFFAXIS_INPLANE=-32.50
		SCAN_ANGLE=0.00
		SCAN_DIAGONAL=NOT_DIAGONAL
		MEAS_PRESET=TIME_PRESET
		MEAS_TIME=27.200
		MEAS_UNIT=GY
		PRESSURE=995.30
		TEMPERATURE=19.10
		NORM_TEMPERATURE=20.00
		CORRECTION_FACTOR=1.1270
		CALIBRATION_FILE=C:\Users\Public\Documents\PTW\Common Files\Calibration Files\230554201_OCTAVIUS1600XDR_191760.cal
		CORRECTIONS=AIR_DENSITY_CORR;FACTOR_CORR;
		BEGIN_DATA
			-32.50		578.56E-06		#1242
			-30.00		566.32E-06		#1206
			-27.50		690.80E-06		#1170
			-25.00		1.0732E-03		#1134
			-22.50		1.6285E-03		#1098
			-20.00		1.3706E-03		#1062
			-17.50		1.8570E-03		#1026
			-15.00		1.8042E-03		#990
			-12.50		1.9669E-03		#954
			-10.00		2.0790E-03		#918
			-7.50		1.8808E-03		#882
			-5.00		2.0946E-03		#846
			-2.50		2.1170E-03		#810
			0.00		2.1916E-03		#774
			2.50		2.1532E-03		#738
			5.00		2.1045E-03		#702
			7.50		2.3426E-03		#666
			10.00		2.2616E-03		#630
			12.50		2.0821E-03		#594
			15.00		2.0086E-03		#558
			17.50		1.9265E-03		#522
			20.00		1.6213E-03		#486
			22.50		1.1527E-03		#450
			25.00		993.13E-06		#414
			27.50		810.19E-06		#378
			30.00		470.63E-06		#342
			32.50		506.03E-06		#306
		END_DATA
	END_SCAN  10
	BEGIN_SCAN  11
		TASK_NAME=DOSE
		GROUP_NAME=LR_27.2
		PROGRAM=BeamAdjust 2.3.0.25
		COMMENT=G000, E221_c-dhex3.6_4
		MEAS_DATE=08-Jun-2024 21:56:53
		LINAC=HIT
		MODALITY=P
		INPLANE_AXIS_DIR=TARGET_GUN
		CROSSPLANE_AXIS_DIR=LEFT_RIGHT
		DEPTH_AXIS_DIR=UP_DOWN
		ENERGY=0.00
		SSD=0.00
		FIELD_INPLANE=50.00
		FIELD_CROSSPLANE=50.00
		FIELD_TYPE=RECTANGULAR
		GANTRY=0.00
		GANTRY_UPRIGHT_POSITION=0
		GANTRY_ROTATION=CW
		COLL_ANGLE=90.00
		SCAN_DEVICE=OCTAVIUS_1600_XDR
		ELECTROMETER=DETECTOR_INTERFACE
		ELECTROMETER_SN=5987
		DETECTOR=OCTAVIUS_1600_XDR
		DETECTOR_SN=191760
		FILTER=FF
		SCAN_CURVETYPE=CROSSPLANE_PROFILE
		SCAN_DEPTH=0.00
		SCAN_OFFAXIS_INPLANE=-30.00
		SCAN_ANGLE=0.00
		SCAN_DIAGONAL=NOT_DIAGONAL
		MEAS_PRESET=TIME_PRESET
		MEAS_TIME=27.200
		MEAS_UNIT=GY
		PRESSURE=995.30
		TEMPERATURE=19.10
		NORM_TEMPERATURE=20.00
		CORRECTION_FACTOR=1.1270
		CALIBRATION_FILE=C:\Users\Public\Documents\PTW\Common Files\Calibration Files\230554201_OCTAVIUS1600XDR_191760.cal
		CORRECTIONS=AIR_DENSITY_CORR;FACTOR_CORR;
		BEGIN_DATA
			-75.00		29.463E-06		#1512
			-70.00		122.61E-06		#1481
			-65.00		49.632E-06		#1450
			-60.00		129.87E-06		#1419
			-55.00		77.985E-06		#1388
			-50.00		-48.767E-06		#1357
			-45.00		-82.126E-06		#1326
			-40.00		344.47E-06		#1295
			-35.00		552.03E-06		#1264
			-32.50		594.92E-06		#1241
			-30.00		1.2120E-03		#1205
			-27.50		2.0659E-03		#1169
			-25.00		3.7901E-03		#1133
			-22.50		5.2068E-03		#1097
			-20.00		6.5034E-03		#1061
			-17.50		7.0113E-03		#1025
			-15.00		7.6165E-03		#989
			-12.50		7.7189E-03		#953
			-10.00		7.5722E-03		#917
			-7.50		8.1066E-03		#881
			-5.00		7.9380E-03		#845
			-2.50		8.2190E-03		#809
			0.00		8.1827E-03		#773
			2.50		8.4387E-03		#737
			5.00		8.4442E-03		#701
			7.50		8.5783E-03		#665
			10.00		8.3067E-03		#629
			12.50		8.7892E-03		#593
			15.00		8.5791E-03		#557
			17.50		8.0770E-03		#521
			20.00		6.7150E-03		#485
			22.50		4.8381E-03		#449
			25.00		2.5018E-03		#413
			27.50		1.5414E-03		#377
			30.00		775.47E-06		#341
			32.50		447.12E-06		#305
			35.00		431.79E-06		#270
			40.00		484.35E-06		#239
			45.00		-149.49E-06		#208
			50.00		74.233E-06		#177
			55.00		128.16E-06		#146
			60.00		98.679E-06		#115
			65.00		33.676E-06		#84
			70.00		143.76E-06		#53
			75.00		-425.81E-06		#22
		END_DATA
	END_SCAN  11
	BEGIN_SCAN  12
		TASK_NAME=DOSE
		GROUP_NAME=LR_27.2
		PROGRAM=BeamAdjust 2.3.0.25
		COMMENT=G000, E221_c-dhex3.6_4
		MEAS_DATE=08-Jun-2024 21:56:53
		LINAC=HIT
		MODALITY=P
		INPLANE_AXIS_DIR=TARGET_GUN
		CROSSPLANE_AXIS_DIR=LEFT_RIGHT
		DEPTH_AXIS_DIR=UP_DOWN
		ENERGY=0.00
		SSD=0.00
		FIELD_INPLANE=50.00
		FIELD_CROSSPLANE=50.00
		FIELD_TYPE=RECTANGULAR
		GANTRY=0.00
		GANTRY_UPRIGHT_POSITION=0
		GANTRY_ROTATION=CW
		COLL_ANGLE=90.00
		SCAN_DEVICE=OCTAVIUS_1600_XDR
		ELECTROMETER=DETECTOR_INTERFACE
		ELECTROMETER_SN=5987
		DETECTOR=OCTAVIUS_1600_XDR
		DETECTOR_SN=191760
		FILTER=FF
		SCAN_CURVETYPE=CROSSPLANE_PROFILE
		SCAN_DEPTH=0.00
		SCAN_OFFAXIS_INPLANE=-27.50
		SCAN_ANGLE=0.00
		SCAN_DIAGONAL=NOT_DIAGONAL
		MEAS_PRESET=TIME_PRESET
		MEAS_TIME=27.200
		MEAS_UNIT=GY
		PRESSURE=995.30
		TEMPERATURE=19.10
		NORM_TEMPERATURE=20.00
		CORRECTION_FACTOR=1.1270
		CALIBRATION_FILE=C:\Users\Public\Documents\PTW\Common Files\Calibration Files\230554201_OCTAVIUS1600XDR_191760.cal
		CORRECTIONS=AIR_DENSITY_CORR;FACTOR_CORR;
		BEGIN_DATA
			-32.50		1.1467E-03		#1240
			-30.00		2.9678E-03		#1204
			-27.50		6.1713E-03		#1168
			-25.00		11.515E-03		#1132
			-22.50		17.867E-03		#1096
			-20.00		22.515E-03		#1060
			-17.50		24.679E-03		#1024
			-15.00		26.164E-03		#988
			-12.50		26.445E-03		#952
			-10.00		26.470E-03		#916
			-7.50		26.724E-03		#880
			-5.00		26.782E-03		#844
			-2.50		26.710E-03		#808
			0.00		27.248E-03		#772
			2.50		27.061E-03		#736
			5.00		27.277E-03		#700
			7.50		27.801E-03		#664
			10.00		27.704E-03		#628
			12.50		27.552E-03		#592
			15.00		26.962E-03		#556
			17.50		24.861E-03		#520
			20.00		20.958E-03		#484
			22.50		14.641E-03		#448
			25.00		8.2105E-03		#412
			27.50		3.6644E-03		#376
			30.00		1.5836E-03		#340
			32.50		697.09E-06		#304
		END_DATA
	END_SCAN  12
	BEGIN_SCAN  13
		TASK_NAME=DOSE
		GROUP_NAME=LR_27.2
		PROGRAM=BeamAdjust 2.3.0.25
		COMMENT=G000, E221_c-dhex3.6_4
		MEAS_DATE=08-Jun-2024 21:56:53
		LINAC=HIT
		MODALITY=P
		INPLANE_AXIS_DIR=TARGET_GUN
		CROSSPLANE_AXIS_DIR=LEFT_RIGHT
		DEPTH_AXIS_DIR=UP_DOWN
		ENERGY=0.00
		SSD=0.00
		FIELD_INPLANE=50.00
		FIELD_CROSSPLANE=50.00
		FIELD_TYPE=RECTANGULAR
		GANTRY=0.00
		GANTRY_UPRIGHT_POSITION=0
		GANTRY_ROTATION=CW
		COLL_ANGLE=90.00
		SCAN_DEVICE=OCTAVIUS_1600_XDR
		ELECTROMETER=DETECTOR_INTERFACE
		ELECTROMETER_SN=5987
		DETECTOR=OCTAVIUS_1600_XDR
		DETECTOR_SN=191760
		FILTER=FF
		SCAN_CURVETYPE=CROSSPLANE_PROFILE
		SCAN_DEPTH=0.00
		SCAN_OFFAXIS_INPLANE=-25.00
		SCAN_ANGLE=0.00
		SCAN_DIAGONAL=NOT_DIAGONAL
		MEAS_PRESET=TIME_PRESET
		MEAS_TIME=27.200
		MEAS_UNIT=GY
		PRESSURE=995.30
		TEMPERATURE=19.10
		NORM_TEMPERATURE=20.00
		CORRECTION_FACTOR=1.1270
		CALIBRATION_FILE=C:\Users\Public\Documents\PTW\Common Files\Calibration Files\230554201_OCTAVIUS1600XDR_191760.cal
		CORRECTIONS=AIR_DENSITY_CORR;FACTOR_CORR;
		BEGIN_DATA
			-75.00		-93.192E-06		#1511
			-70.00		53.524E-06		#1480
			-65.00		53.052E-06		#1449
			-60.00		-9.9519E-06		#1418
			-55.00		198.12E-09		#1387
			-50.00		178.24E-06		#1356
			-45.00		100.53E-06		#1325
			-40.00		399.10E-06		#1294
			-35.00		900.19E-06		#1263
			-32.50		2.2480E-03		#1239
			-30.00		5.5501E-03		#1203
			-27.50		12.661E-03		#1167
			-25.00		23.190E-03		#1131
			-22.50		34.369E-03		#1095
			-20.00		42.438E-03		#1059
			-17.50		47.053E-03		#1023
			-15.00		48.586E-03		#987
			-12.50		49.154E-03		#951
			-10.00		49.105E-03		#915
			-7.50		49.123E-03		#879
			-5.00		48.953E-03		#843
			-2.50		49.120E-03		#807
			0.00		48.775E-03		#771
			2.50		49.424E-03		#735
			5.00		49.029E-03		#699
			7.50		49.282E-03		#663
			10.00		49.109E-03		#627
			12.50		48.790E-03		#591
			15.00		47.195E-03		#555
			17.50		42.752E-03		#519
			20.00		35.114E-03		#483
			22.50		23.658E-03		#447
			25.00		12.572E-03		#411
			27.50		5.4879E-03		#375
			30.00		1.9791E-03		#339
			32.50		684.38E-06		#303
			35.00		519.00E-06		#269
			40.00		68.111E-06		#238
			45.00		272.43E-06		#207
			50.00		118.67E-06		#176
			55.00		155.00E-06		#145
			60.00		17.731E-06		#114
			65.00		60.918E-06		#83
			70.00		-13.713E-06		#52
			75.00		23.283E-06		#21
		END_DATA
	END_SCAN  13
	BEGIN_SCAN  14
		TASK_NAME=DOSE
		GROUP_NAME=LR_27.2
		PROGRAM=BeamAdjust 2.3.0.25
		COMMENT=G000, E221_c-dhex3.6_4
		MEAS_DATE=08-Jun-2024 21:56:53
		LINAC=HIT
		MODALITY=P
		INPLANE_AXIS_DIR=TARGET_GUN
		CROSSPLANE_AXIS_DIR=LEFT_RIGHT
		DEPTH_AXIS_DIR=UP_DOWN
		ENERGY=0.00
		SSD=0.00
		FIELD_INPLANE=50.00
		FIELD_CROSSPLANE=50.00
		FIELD_TYPE=RECTANGULAR
		GANTRY=0.00
		GANTRY_UPRIGHT_POSITION=0
		GANTRY_ROTATION=CW
		COLL_ANGLE=90.00
		SCAN_DEVICE=OCTAVIUS_1600_XDR
		ELECTROMETER=DETECTOR_INTERFACE
		ELECTROMETER_SN=5987
		DETECTOR=OCTAVIUS_1600_XDR
		DETECTOR_SN=191760
		FILTER=FF
		SCAN_CURVETYPE=CROSSPLANE_PROFILE
		SCAN_DEPTH=0.00
		SCAN_OFFAXIS_INPLANE=-22.50
		SCAN_ANGLE=0.00
		SCAN_DIAGONAL=NOT_DIAGONAL
		MEAS_PRESET=TIME_PRESET
		MEAS_TIME=27.200
		MEAS_UNIT=GY
		PRESSURE=995.30
		TEMPERATURE=19.10
		NORM_TEMPERATURE=20.00
		CORRECTION_FACTOR=1.1270
		CALIBRATION_FILE=C:\Users\Public\Documents\PTW\Common Files\Calibration Files\230554201_OCTAVIUS1600XDR_191760.cal
		CORRECTIONS=AIR_DENSITY_CORR;FACTOR_CORR;
		BEGIN_DATA
			-32.50		3.0673E-03		#1238
			-30.00		8.3062E-03		#1202
			-27.50		18.645E-03		#1166
			-25.00		34.226E-03		#1130
			-22.50		50.200E-03		#1094
			-20.00		61.779E-03		#1058
			-17.50		67.038E-03		#1022
			-15.00		69.223E-03		#986
			-12.50		69.790E-03		#950
			-10.00		70.512E-03		#914
			-7.50		70.142E-03		#878
			-5.00		70.437E-03		#842
			-2.50		70.478E-03		#806
			0.00		70.310E-03		#770
			2.50		70.663E-03		#734
			5.00		70.752E-03		#698
			7.50		71.152E-03		#662
			10.00		70.409E-03		#626
			12.50		69.970E-03		#590
			15.00		67.495E-03		#554
			17.50		61.144E-03		#518
			20.00		49.233E-03		#482
			22.50		32.704E-03		#446
			25.00		17.292E-03		#410
			27.50		7.2852E-03		#374
			30.00		2.6206E-03		#338
			32.50		1.0092E-03		#302
		END_DATA
	END_SCAN  14
	BEGIN_SCAN  15
		TASK_NAME=DOSE
		GROUP_NAME=LR_27.2
		PROGRAM=BeamAdjust 2.3.0.25
		COMMENT=G000, E221_c-dhex3.6_4
		MEAS_DATE=08-Jun-2024 21:56:53
		LINAC=HIT
		MODALITY=P
		INPLANE_AXIS_DIR=TARGET_GUN
		CROSSPLANE_AXIS_DIR=LEFT_RIGHT
		DEPTH_AXIS_DIR=UP_DOWN
		ENERGY=0.00
		SSD=0.00
		FIELD_INPLANE=50.00
		FIELD_CROSSPLANE=50.00
		FIELD_TYPE=RECTANGULAR
		GANTRY=0.00
		GANTRY_UPRIGHT_POSITION=0
		GANTRY_ROTATION=CW
		COLL_ANGLE=90.00
		SCAN_DEVICE=OCTAVIUS_1600_XDR
		ELECTROMETER=DETECTOR_INTERFACE
		ELECTROMETER_SN=5987
		DETECTOR=OCTAVIUS_1600_XDR
		DETECTOR_SN=191760
		FILTER=FF
		SCAN_CURVETYPE=CROSSPLANE_PROFILE
		SCAN_DEPTH=0.00
		SCAN_OFFAXIS_INPLANE=-20.00
		SCAN_ANGLE=0.00
		SCAN_DIAGONAL=NOT_DIAGONAL
		MEAS_PRESET=TIME_PRESET
		MEAS_TIME=27.200
		MEAS_UNIT=GY
		PRESSURE=995.30
		TEMPERATURE=19.10
		NORM_TEMPERATURE=20.00
		CORRECTION_FACTOR=1.1270
		CALIBRATION_FILE=C:\Users\Public\Documents\PTW\Common Files\Calibration Files\230554201_OCTAVIUS1600XDR_191760.cal
		CORRECTIONS=AIR_DENSITY_CORR;FACTOR_CORR;
		BEGIN_DATA
			-75.00		184.22E-06		#1510
			-70.00		109.80E-06		#1479
			-65.00		1.4140E-06		#1448
			-60.00		-94.855E-06		#1417
			-55.00		-51.139E-06		#1386
			-50.00		-117.20E-06		#1355
			-45.00		216.89E-06		#1324
			-40.00		472.68E-06		#1293
			-35.00		1.4644E-03		#1262
			-32.50		3.9331E-03		#1237
			-30.00		10.901E-03		#1201
			-27.50		24.157E-03		#1165
			-25.00		44.547E-03		#1129
			-22.50		65.251E-03		#1093
			-20.00		78.909E-03		#1057
			-17.50		86.363E-03		#1021
			-15.00		89.459E-03		#985
			-12.50		90.213E-03		#949
			-10.00		89.958E-03		#913
			-7.50		90.684E-03		#877
			-5.00		89.843E-03		#841
			-2.50		90.689E-03		#805
			0.00		90.139E-03		#769
			2.50		90.609E-03		#733
			5.00		90.582E-03		#697
			7.50		90.502E-03		#661
			10.00		90.661E-03		#625
			12.50		89.853E-03		#589
			15.00		86.291E-03		#553
			17.50		78.114E-03		#517
			20.00		62.852E-03		#481
			22.50		41.328E-03		#445
			25.00		21.494E-03		#409
			27.50		9.0322E-03		#373
			30.00		3.2852E-03		#337
			32.50		1.2536E-03		#301
			35.00		659.15E-06		#268
			40.00		246.28E-06		#237
			45.00		259.53E-06		#206
			50.00		51.757E-06		#175
			55.00		102.59E-06		#144
			60.00		187.16E-06		#113
			65.00		74.080E-06		#82
			70.00		114.57E-06		#51
			75.00		66.697E-06		#20
		END_DATA
	END_SCAN  15
