BEGIN_SCAN_DATA
	FORMAT=CC-Export V1.9                  
	FILE_CREATION_DATE=08-Jun-2024 22:00:40
	LAST_MODIFIED=08-Jun-2024 22:00:40
	BEGIN_SCAN  1
		TASK_NAME=DOSE
		GROUP_NAME=LR_20.0
		PROGRAM=BeamAdjust 2.3.0.25
		COMMENT=G000, E221_c-dhex3.6_4
		MEAS_DATE=08-Jun-2024 22:00:32
		LINAC=HIT
		MODALITY=P
		INPLANE_AXIS_DIR=TARGET_GUN
		CROSSPLANE_AXIS_DIR=LEFT_RIGHT
		DEPTH_AXIS_DIR=UP_DOWN
		ENERGY=0.00
		SSD=0.00
		FIELD_INPLANE=50.00
		FIELD_CROSSPLANE=50.00
		FIELD_TYPE=RECTANGULAR
		GANTRY=0.00
		GANTRY_UPRIGHT_POSITION=0
		GANTRY_ROTATION=CW
		COLL_ANGLE=90.00
		SCAN_DEVICE=OCTAVIUS_1600_XDR
		ELECTROMETER=DETECTOR_INTERFACE
		ELECTROMETER_SN=5987
		DETECTOR=OCTAVIUS_1600_XDR
		DETECTOR_SN=191760
		FILTER=FF
		SCAN_CURVETYPE=CROSSPLANE_PROFILE
		SCAN_DEPTH=0.00
		SCAN_OFFAXIS_INPLANE=-75.00
		SCAN_ANGLE=0.00
		SCAN_DIAGONAL=NOT_DIAGONAL
		MEAS_PRESET=TIME_PRESET
		MEAS_TIME=20.000
		MEAS_UNIT=GY
		PRESSURE=995.30
		TEMPERATURE=19.10
		NORM_TEMPERATURE=20.00
		CORRECTION_FACTOR=1.1270
		CALIBRATION_FILE=C:\Users\Public\Documents\PTW\Common Files\Calibration Files\230554201_OCTAVIUS1600XDR_191760.cal
		CORRECTIONS=AIR_DENSITY_CORR;FACTOR_CORR;
		BEGIN_DATA
			-75.00		-37.029E-06		#1521
			-70.00		-168.23E-06		#1490
			-65.00		44.657E-06		#1459
			-60.00		-77.326E-06		#1428
			-55.00		-131.20E-06		#1397
			-50.00		-10.434E-06		#1366
			-45.00		-70.236E-06		#1335
			-40.00		-12.122E-06		#1304
			-35.00		-109.79E-06		#1273
			-30.00		13.032E-06		#1215
			-25.00		147.82E-06		#1143
			-20.00		36.886E-06		#1071
			-15.00		253.25E-06		#999
			-10.00		-32.646E-06		#927
			-5.00		95.838E-06		#855
			0.00		87.109E-06		#783
			5.00		94.406E-06		#711
			10.00		-47.587E-06		#639
			15.00		167.17E-06		#567
			20.00		99.082E-06		#495
			25.00		84.294E-06		#423
			30.00		-247.77E-06		#351
			35.00		124.17E-06		#279
			40.00		204.84E-06		#248
			45.00		-17.035E-06		#217
			50.00		-149.39E-06		#186
			55.00		52.825E-06		#155
			60.00		101.92E-06		#124
			65.00		65.429E-06		#93
			70.00		189.08E-06		#62
			75.00		-202.66E-06		#31
		END_DATA
	END_SCAN  1
	BEGIN_SCAN  2
		TASK_NAME=DOSE
		GROUP_NAME=LR_20.0
		PROGRAM=BeamAdjust 2.3.0.25
		COMMENT=G000, E221_c-dhex3.6_4
		MEAS_DATE=08-Jun-2024 22:00:32
		LINAC=HIT
		MODALITY=P
		INPLANE_AXIS_DIR=TARGET_GUN
		CROSSPLANE_AXIS_DIR=LEFT_RIGHT
		DEPTH_AXIS_DIR=UP_DOWN
		ENERGY=0.00
		SSD=0.00
		FIELD_INPLANE=50.00
		FIELD_CROSSPLANE=50.00
		FIELD_TYPE=RECTANGULAR
		GANTRY=0.00
		GANTRY_UPRIGHT_POSITION=0
		GANTRY_ROTATION=CW
		COLL_ANGLE=90.00
		SCAN_DEVICE=OCTAVIUS_1600_XDR
		ELECTROMETER=DETECTOR_INTERFACE
		ELECTROMETER_SN=5987
		DETECTOR=OCTAVIUS_1600_XDR
		DETECTOR_SN=191760
		FILTER=FF
		SCAN_CURVETYPE=CROSSPLANE_PROFILE
		SCAN_DEPTH=0.00
		SCAN_OFFAXIS_INPLANE=-70.00
		SCAN_ANGLE=0.00
		SCAN_DIAGONAL=NOT_DIAGONAL
		MEAS_PRESET=TIME_PRESET
		MEAS_TIME=20.000
		MEAS_UNIT=GY
		PRESSURE=995.30
		TEMPERATURE=19.10
		NORM_TEMPERATURE=20.00
		CORRECTION_FACTOR=1.1270
		CALIBRATION_FILE=C:\Users\Public\Documents\PTW\Common Files\Calibration Files\230554201_OCTAVIUS1600XDR_191760.cal
		CORRECTIONS=AIR_DENSITY_CORR;FACTOR_CORR;
		BEGIN_DATA
			-75.00		43.936E-06		#1520
			-70.00		71.854E-06		#1489
			-65.00		51.622E-06		#1458
			-60.00		-79.070E-06		#1427
			-55.00		-185.87E-06		#1396
			-50.00		-49.009E-06		#1365
			-45.00		73.786E-06		#1334
			-40.00		-52.784E-06		#1303
			-35.00		112.99E-06		#1272
			-30.00		-3.0726E-06		#1214
			-25.00		-100.84E-06		#1142
			-20.00		-46.684E-06		#1070
			-15.00		-115.61E-06		#998
			-10.00		80.989E-06		#926
			-5.00		176.60E-06		#854
			0.00		26.757E-06		#782
			5.00		22.615E-06		#710
			10.00		-13.679E-06		#638
			15.00		9.8147E-06		#566
			20.00		-201.17E-06		#494
			25.00		86.823E-06		#422
			30.00		-42.797E-06		#350
			35.00		63.045E-06		#278
			40.00		-87.944E-06		#247
			45.00		-100.42E-06		#216
			50.00		-18.808E-06		#185
			55.00		-20.753E-06		#154
			60.00		-6.0827E-06		#123
			65.00		43.286E-06		#92
			70.00		24.206E-06		#61
			75.00		-23.008E-06		#30
		END_DATA
	END_SCAN  2
	BEGIN_SCAN  3
		TASK_NAME=DOSE
		GROUP_NAME=LR_20.0
		PROGRAM=BeamAdjust 2.3.0.25
		COMMENT=G000, E221_c-dhex3.6_4
		MEAS_DATE=08-Jun-2024 22:00:32
		LINAC=HIT
		MODALITY=P
		INPLANE_AXIS_DIR=TARGET_GUN
		CROSSPLANE_AXIS_DIR=LEFT_RIGHT
		DEPTH_AXIS_DIR=UP_DOWN
		ENERGY=0.00
		SSD=0.00
		FIELD_INPLANE=50.00
		FIELD_CROSSPLANE=50.00
		FIELD_TYPE=RECTANGULAR
		GANTRY=0.00
		GANTRY_UPRIGHT_POSITION=0
		GANTRY_ROTATION=CW
		COLL_ANGLE=90.00
		SCAN_DEVICE=OCTAVIUS_1600_XDR
		ELECTROMETER=DETECTOR_INTERFACE
		ELECTROMETER_SN=5987
		DETECTOR=OCTAVIUS_1600_XDR
		DETECTOR_SN=191760
		FILTER=FF
		SCAN_CURVETYPE=CROSSPLANE_PROFILE
		SCAN_DEPTH=0.00
		SCAN_OFFAXIS_INPLANE=-65.00
		SCAN_ANGLE=0.00
		SCAN_DIAGONAL=NOT_DIAGONAL
		MEAS_PRESET=TIME_PRESET
		MEAS_TIME=20.000
		MEAS_UNIT=GY
		PRESSURE=995.30
		TEMPERATURE=19.10
		NORM_TEMPERATURE=20.00
		CORRECTION_FACTOR=1.1270
		CALIBRATION_FILE=C:\Users\Public\Documents\PTW\Common Files\Calibration Files\230554201_OCTAVIUS1600XDR_191760.cal
		CORRECTIONS=AIR_DENSITY_CORR;FACTOR_CORR;
		BEGIN_DATA
			-75.00		-128.44E-06		#1519
			-70.00		-13.750E-06		#1488
			-65.00		19.715E-06		#1457
			-60.00		-7.1030E-06		#1426
			-55.00		20.460E-06		#1395
			-50.00		43.574E-06		#1364
			-45.00		7.5993E-06		#1333
			-40.00		3.8110E-06		#1302
			-35.00		85.776E-06		#1271
			-30.00		110.27E-06		#1213
			-25.00		-114.24E-06		#1141
			-20.00		18.059E-06		#1069
			-15.00		22.319E-06		#997
			-10.00		121.82E-06		#925
			-5.00		80.555E-06		#853
			0.00		95.462E-06		#781
			5.00		-88.573E-06		#709
			10.00		104.91E-06		#637
			15.00		-94.086E-06		#565
			20.00		-108.74E-06		#493
			25.00		25.642E-06		#421
			30.00		-8.1778E-06		#349
			35.00		200.63E-06		#277
			40.00		-97.926E-06		#246
			45.00		132.15E-06		#215
			50.00		124.60E-06		#184
			55.00		5.8309E-06		#153
			60.00		-55.834E-06		#122
			65.00		-53.547E-06		#91
			70.00		-6.2386E-06		#60
			75.00		-129.53E-06		#29
		END_DATA
	END_SCAN  3
	BEGIN_SCAN  4
		TASK_NAME=DOSE
		GROUP_NAME=LR_20.0
		PROGRAM=BeamAdjust 2.3.0.25
		COMMENT=G000, E221_c-dhex3.6_4
		MEAS_DATE=08-Jun-2024 22:00:32
		LINAC=HIT
		MODALITY=P
		INPLANE_AXIS_DIR=TARGET_GUN
		CROSSPLANE_AXIS_DIR=LEFT_RIGHT
		DEPTH_AXIS_DIR=UP_DOWN
		ENERGY=0.00
		SSD=0.00
		FIELD_INPLANE=50.00
		FIELD_CROSSPLANE=50.00
		FIELD_TYPE=RECTANGULAR
		GANTRY=0.00
		GANTRY_UPRIGHT_POSITION=0
		GANTRY_ROTATION=CW
		COLL_ANGLE=90.00
		SCAN_DEVICE=OCTAVIUS_1600_XDR
		ELECTROMETER=DETECTOR_INTERFACE
		ELECTROMETER_SN=5987
		DETECTOR=OCTAVIUS_1600_XDR
		DETECTOR_SN=191760
		FILTER=FF
		SCAN_CURVETYPE=CROSSPLANE_PROFILE
		SCAN_DEPTH=0.00
		SCAN_OFFAXIS_INPLANE=-60.00
		SCAN_ANGLE=0.00
		SCAN_DIAGONAL=NOT_DIAGONAL
		MEAS_PRESET=TIME_PRESET
		MEAS_TIME=20.000
		MEAS_UNIT=GY
		PRESSURE=995.30
		TEMPERATURE=19.10
		NORM_TEMPERATURE=20.00
		CORRECTION_FACTOR=1.1270
		CALIBRATION_FILE=C:\Users\Public\Documents\PTW\Common Files\Calibration Files\230554201_OCTAVIUS1600XDR_191760.cal
		CORRECTIONS=AIR_DENSITY_CORR;FACTOR_CORR;
		BEGIN_DATA
			-75.00		75.152E-06		#1518
			-70.00		-15.258E-06		#1487
			-65.00		31.626E-06		#1456
			-60.00		-32.557E-06		#1425
			-55.00		48.484E-06		#1394
			-50.00		80.663E-06		#1363
			-45.00		-40.633E-06		#1332
			-40.00		80.171E-06		#1301
			-35.00		-83.980E-06		#1270
			-30.00		-42.727E-06		#1212
			-25.00		23.545E-06		#1140
			-20.00		86.524E-06		#1068
			-15.00		28.961E-06		#996
			-10.00		9.5484E-06		#924
			-5.00		217.86E-06		#852
			0.00		-53.194E-06		#780
			5.00		210.04E-06		#708
			10.00		168.54E-06		#636
			15.00		149.04E-06		#564
			20.00		40.359E-06		#492
			25.00		28.974E-06		#420
			30.00		41.499E-06		#348
			35.00		-53.589E-06		#276
			40.00		29.265E-06		#245
			45.00		154.51E-06		#214
			50.00		76.925E-06		#183
			55.00		63.815E-06		#152
			60.00		61.538E-06		#121
			65.00		242.60E-06		#90
			70.00		2.6542E-06		#59
			75.00		276.32E-06		#28
		END_DATA
	END_SCAN  4
	BEGIN_SCAN  5
		TASK_NAME=DOSE
		GROUP_NAME=LR_20.0
		PROGRAM=BeamAdjust 2.3.0.25
		COMMENT=G000, E221_c-dhex3.6_4
		MEAS_DATE=08-Jun-2024 22:00:32
		LINAC=HIT
		MODALITY=P
		INPLANE_AXIS_DIR=TARGET_GUN
		CROSSPLANE_AXIS_DIR=LEFT_RIGHT
		DEPTH_AXIS_DIR=UP_DOWN
		ENERGY=0.00
		SSD=0.00
		FIELD_INPLANE=50.00
		FIELD_CROSSPLANE=50.00
		FIELD_TYPE=RECTANGULAR
		GANTRY=0.00
		GANTRY_UPRIGHT_POSITION=0
		GANTRY_ROTATION=CW
		COLL_ANGLE=90.00
		SCAN_DEVICE=OCTAVIUS_1600_XDR
		ELECTROMETER=DETECTOR_INTERFACE
		ELECTROMETER_SN=5987
		DETECTOR=OCTAVIUS_1600_XDR
		DETECTOR_SN=191760
		FILTER=FF
		SCAN_CURVETYPE=CROSSPLANE_PROFILE
		SCAN_DEPTH=0.00
		SCAN_OFFAXIS_INPLANE=-55.00
		SCAN_ANGLE=0.00
		SCAN_DIAGONAL=NOT_DIAGONAL
		MEAS_PRESET=TIME_PRESET
		MEAS_TIME=20.000
		MEAS_UNIT=GY
		PRESSURE=995.30
		TEMPERATURE=19.10
		NORM_TEMPERATURE=20.00
		CORRECTION_FACTOR=1.1270
		CALIBRATION_FILE=C:\Users\Public\Documents\PTW\Common Files\Calibration Files\230554201_OCTAVIUS1600XDR_191760.cal
		CORRECTIONS=AIR_DENSITY_CORR;FACTOR_CORR;
		BEGIN_DATA
			-75.00		-35.638E-06		#1517
			-70.00		78.080E-06		#1486
			-65.00		-60.242E-06		#1455
			-60.00		-134.94E-06		#1424
			-55.00		-69.941E-06		#1393
			-50.00		-24.941E-06		#1362
			-45.00		-6.1253E-06		#1331
			-40.00		37.306E-06		#1300
			-35.00		16.404E-06		#1269
			-30.00		73.958E-06		#1211
			-25.00		91.736E-06		#1139
			-20.00		87.349E-06		#1067
			-15.00		273.83E-06		#995
			-10.00		86.190E-06		#923
			-5.00		93.365E-06		#851
			0.00		-96.514E-06		#779
			5.00		194.64E-06		#707
			10.00		190.38E-06		#635
			15.00		64.118E-06		#563
			20.00		246.35E-06		#491
			25.00		-26.591E-06		#419
			30.00		-56.408E-06		#347
			35.00		116.28E-06		#275
			40.00		-179.16E-06		#244
			45.00		172.56E-06		#213
			50.00		135.74E-06		#182
			55.00		-85.821E-06		#151
			60.00		7.5914E-06		#120
			65.00		41.238E-06		#89
			70.00		77.651E-06		#58
			75.00		-145.72E-06		#27
		END_DATA
	END_SCAN  5
	BEGIN_SCAN  6
		TASK_NAME=DOSE
		GROUP_NAME=LR_20.0
		PROGRAM=BeamAdjust 2.3.0.25
		COMMENT=G000, E221_c-dhex3.6_4
		MEAS_DATE=08-Jun-2024 22:00:32
		LINAC=HIT
		MODALITY=P
		INPLANE_AXIS_DIR=TARGET_GUN
		CROSSPLANE_AXIS_DIR=LEFT_RIGHT
		DEPTH_AXIS_DIR=UP_DOWN
		ENERGY=0.00
		SSD=0.00
		FIELD_INPLANE=50.00
		FIELD_CROSSPLANE=50.00
		FIELD_TYPE=RECTANGULAR
		GANTRY=0.00
		GANTRY_UPRIGHT_POSITION=0
		GANTRY_ROTATION=CW
		COLL_ANGLE=90.00
		SCAN_DEVICE=OCTAVIUS_1600_XDR
		ELECTROMETER=DETECTOR_INTERFACE
		ELECTROMETER_SN=5987
		DETECTOR=OCTAVIUS_1600_XDR
		DETECTOR_SN=191760
		FILTER=FF
		SCAN_CURVETYPE=CROSSPLANE_PROFILE
		SCAN_DEPTH=0.00
		SCAN_OFFAXIS_INPLANE=-50.00
		SCAN_ANGLE=0.00
		SCAN_DIAGONAL=NOT_DIAGONAL
		MEAS_PRESET=TIME_PRESET
		MEAS_TIME=20.000
		MEAS_UNIT=GY
		PRESSURE=995.30
		TEMPERATURE=19.10
		NORM_TEMPERATURE=20.00
		CORRECTION_FACTOR=1.1270
		CALIBRATION_FILE=C:\Users\Public\Documents\PTW\Common Files\Calibration Files\230554201_OCTAVIUS1600XDR_191760.cal
		CORRECTIONS=AIR_DENSITY_CORR;FACTOR_CORR;
		BEGIN_DATA
			-75.00		-16.506E-06		#1516
			-70.00		-50.456E-06		#1485
			-65.00		-176.82E-06		#1454
			-60.00		85.644E-06		#1423
			-55.00		58.607E-06		#1392
			-50.00		127.47E-06		#1361
			-45.00		72.083E-06		#1330
			-40.00		220.38E-06		#1299
			-35.00		-141.18E-06		#1268
			-30.00		240.60E-06		#1210
			-25.00		-40.867E-06		#1138
			-20.00		108.53E-06		#1066
			-15.00		89.675E-06		#994
			-10.00		76.562E-06		#922
			-5.00		184.67E-06		#850
			0.00		109.73E-06		#778
			5.00		190.37E-06		#706
			10.00		40.735E-06		#634
			15.00		98.490E-06		#562
			20.00		277.72E-06		#490
			25.00		119.30E-06		#418
			30.00		271.15E-09		#346
			35.00		-33.215E-06		#274
			40.00		177.43E-06		#243
			45.00		-57.960E-06		#212
			50.00		-11.640E-06		#181
			55.00		159.58E-06		#150
			60.00		-12.285E-06		#119
			65.00		130.20E-06		#88
			70.00		132.48E-06		#57
			75.00		-122.94E-06		#26
		END_DATA
	END_SCAN  6
	BEGIN_SCAN  7
		TASK_NAME=DOSE
		GROUP_NAME=LR_20.0
		PROGRAM=BeamAdjust 2.3.0.25
		COMMENT=G000, E221_c-dhex3.6_4
		MEAS_DATE=08-Jun-2024 22:00:32
		LINAC=HIT
		MODALITY=P
		INPLANE_AXIS_DIR=TARGET_GUN
		CROSSPLANE_AXIS_DIR=LEFT_RIGHT
		DEPTH_AXIS_DIR=UP_DOWN
		ENERGY=0.00
		SSD=0.00
		FIELD_INPLANE=50.00
		FIELD_CROSSPLANE=50.00
		FIELD_TYPE=RECTANGULAR
		GANTRY=0.00
		GANTRY_UPRIGHT_POSITION=0
		GANTRY_ROTATION=CW
		COLL_ANGLE=90.00
		SCAN_DEVICE=OCTAVIUS_1600_XDR
		ELECTROMETER=DETECTOR_INTERFACE
		ELECTROMETER_SN=5987
		DETECTOR=OCTAVIUS_1600_XDR
		DETECTOR_SN=191760
		FILTER=FF
		SCAN_CURVETYPE=CROSSPLANE_PROFILE
		SCAN_DEPTH=0.00
		SCAN_OFFAXIS_INPLANE=-45.00
		SCAN_ANGLE=0.00
		SCAN_DIAGONAL=NOT_DIAGONAL
		MEAS_PRESET=TIME_PRESET
		MEAS_TIME=20.000
		MEAS_UNIT=GY
		PRESSURE=995.30
		TEMPERATURE=19.10
		NORM_TEMPERATURE=20.00
		CORRECTION_FACTOR=1.1270
		CALIBRATION_FILE=C:\Users\Public\Documents\PTW\Common Files\Calibration Files\230554201_OCTAVIUS1600XDR_191760.cal
		CORRECTIONS=AIR_DENSITY_CORR;FACTOR_CORR;
		BEGIN_DATA
			-75.00		23.418E-06		#1515
			-70.00		23.024E-06		#1484
			-65.00		48.567E-06		#1453
			-60.00		-60.988E-06		#1422
			-55.00		44.105E-06		#1391
			-50.00		32.266E-06		#1360
			-45.00		41.196E-06		#1329
			-40.00		-16.686E-06		#1298
			-35.00		-117.51E-06		#1267
			-30.00		66.093E-06		#1209
			-25.00		152.86E-06		#1137
			-20.00		187.35E-06		#1065
			-15.00		210.45E-06		#993
			-10.00		158.94E-06		#921
			-5.00		311.01E-06		#849
			0.00		302.31E-06		#777
			5.00		219.53E-06		#705
			10.00		146.87E-06		#633
			15.00		10.613E-06		#561
			20.00		40.877E-06		#489
			25.00		147.66E-06		#417
			30.00		203.00E-06		#345
			35.00		18.604E-06		#273
			40.00		38.065E-06		#242
			45.00		210.33E-06		#211
			50.00		177.24E-06		#180
			55.00		-42.340E-06		#149
			60.00		175.38E-06		#118
			65.00		103.25E-06		#87
			70.00		914.23E-09		#56
			75.00		-61.908E-06		#25
		END_DATA
	END_SCAN  7
	BEGIN_SCAN  8
		TASK_NAME=DOSE
		GROUP_NAME=LR_20.0
		PROGRAM=BeamAdjust 2.3.0.25
		COMMENT=G000, E221_c-dhex3.6_4
		MEAS_DATE=08-Jun-2024 22:00:32
		LINAC=HIT
		MODALITY=P
		INPLANE_AXIS_DIR=TARGET_GUN
		CROSSPLANE_AXIS_DIR=LEFT_RIGHT
		DEPTH_AXIS_DIR=UP_DOWN
		ENERGY=0.00
		SSD=0.00
		FIELD_INPLANE=50.00
		FIELD_CROSSPLANE=50.00
		FIELD_TYPE=RECTANGULAR
		GANTRY=0.00
		GANTRY_UPRIGHT_POSITION=0
		GANTRY_ROTATION=CW
		COLL_ANGLE=90.00
		SCAN_DEVICE=OCTAVIUS_1600_XDR
		ELECTROMETER=DETECTOR_INTERFACE
		ELECTROMETER_SN=5987
		DETECTOR=OCTAVIUS_1600_XDR
		DETECTOR_SN=191760
		FILTER=FF
		SCAN_CURVETYPE=CROSSPLANE_PROFILE
		SCAN_DEPTH=0.00
		SCAN_OFFAXIS_INPLANE=-40.00
		SCAN_ANGLE=0.00
		SCAN_DIAGONAL=NOT_DIAGONAL
		MEAS_PRESET=TIME_PRESET
		MEAS_TIME=20.000
		MEAS_UNIT=GY
		PRESSURE=995.30
		TEMPERATURE=19.10
		NORM_TEMPERATURE=20.00
		CORRECTION_FACTOR=1.1270
		CALIBRATION_FILE=C:\Users\Public\Documents\PTW\Common Files\Calibration Files\230554201_OCTAVIUS1600XDR_191760.cal
		CORRECTIONS=AIR_DENSITY_CORR;FACTOR_CORR;
		BEGIN_DATA
			-75.00		-34.215E-06		#1514
			-70.00		62.611E-06		#1483
			-65.00		104.09E-06		#1452
			-60.00		-27.882E-06		#1421
			-55.00		74.054E-06		#1390
			-50.00		96.185E-06		#1359
			-45.00		137.27E-06		#1328
			-40.00		148.32E-06		#1297
			-35.00		148.99E-06		#1266
			-30.00		249.26E-06		#1208
			-25.00		247.59E-06		#1136
			-20.00		232.67E-06		#1064
			-15.00		275.96E-06		#992
			-10.00		267.22E-06		#920
			-5.00		402.57E-06		#848
			0.00		246.58E-06		#776
			5.00		284.65E-06		#704
			10.00		437.10E-06		#632
			15.00		266.62E-06		#560
			20.00		372.74E-06		#488
			25.00		247.65E-06		#416
			30.00		183.09E-06		#344
			35.00		54.258E-06		#272
			40.00		-54.215E-06		#241
			45.00		55.827E-06		#210
			50.00		-49.820E-06		#179
			55.00		172.53E-06		#148
			60.00		56.981E-06		#117
			65.00		116.41E-06		#86
			70.00		32.687E-06		#55
			75.00		52.836E-06		#24
		END_DATA
	END_SCAN  8
	BEGIN_SCAN  9
		TASK_NAME=DOSE
		GROUP_NAME=LR_20.0
		PROGRAM=BeamAdjust 2.3.0.25
		COMMENT=G000, E221_c-dhex3.6_4
		MEAS_DATE=08-Jun-2024 22:00:32
		LINAC=HIT
		MODALITY=P
		INPLANE_AXIS_DIR=TARGET_GUN
		CROSSPLANE_AXIS_DIR=LEFT_RIGHT
		DEPTH_AXIS_DIR=UP_DOWN
		ENERGY=0.00
		SSD=0.00
		FIELD_INPLANE=50.00
		FIELD_CROSSPLANE=50.00
		FIELD_TYPE=RECTANGULAR
		GANTRY=0.00
		GANTRY_UPRIGHT_POSITION=0
		GANTRY_ROTATION=CW
		COLL_ANGLE=90.00
		SCAN_DEVICE=OCTAVIUS_1600_XDR
		ELECTROMETER=DETECTOR_INTERFACE
		ELECTROMETER_SN=5987
		DETECTOR=OCTAVIUS_1600_XDR
		DETECTOR_SN=191760
		FILTER=FF
		SCAN_CURVETYPE=CROSSPLANE_PROFILE
		SCAN_DEPTH=0.00
		SCAN_OFFAXIS_INPLANE=-35.00
		SCAN_ANGLE=0.00
		SCAN_DIAGONAL=NOT_DIAGONAL
		MEAS_PRESET=TIME_PRESET
		MEAS_TIME=20.000
		MEAS_UNIT=GY
		PRESSURE=995.30
		TEMPERATURE=19.10
		NORM_TEMPERATURE=20.00
		CORRECTION_FACTOR=1.1270
		CALIBRATION_FILE=C:\Users\Public\Documents\PTW\Common Files\Calibration Files\230554201_OCTAVIUS1600XDR_191760.cal
		CORRECTIONS=AIR_DENSITY_CORR;FACTOR_CORR;
		BEGIN_DATA
			-75.00		156.96E-06		#1513
			-70.00		-140.43E-06		#1482
			-65.00		-12.561E-06		#1451
			-60.00		61.964E-06		#1420
			-55.00		39.557E-06		#1389
			-50.00		61.821E-06		#1358
			-45.00		102.47E-06		#1327
			-40.00		188.51E-06		#1296
			-35.00		136.33E-06		#1265
			-30.00		199.07E-06		#1207
			-25.00		376.35E-06		#1135
			-20.00		684.68E-06		#1063
			-15.00		747.39E-06		#991
			-10.00		854.76E-06		#919
			-5.00		1.0620E-03		#847
			0.00		904.93E-06		#775
			5.00		661.98E-06		#703
			10.00		798.92E-06		#631
			15.00		544.09E-06		#559
			20.00		721.05E-06		#487
			25.00		489.97E-06		#415
			30.00		281.18E-06		#343
			35.00		152.14E-06		#271
			40.00		189.38E-06		#240
			45.00		-39.836E-06		#209
			50.00		-166.72E-06		#178
			55.00		24.255E-06		#147
			60.00		142.61E-06		#116
			65.00		3.6663E-06		#85
			70.00		-33.436E-06		#54
			75.00		26.392E-06		#23
		END_DATA
	END_SCAN  9
	BEGIN_SCAN  10
		TASK_NAME=DOSE
		GROUP_NAME=LR_20.0
		PROGRAM=BeamAdjust 2.3.0.25
		COMMENT=G000, E221_c-dhex3.6_4
		MEAS_DATE=08-Jun-2024 22:00:32
		LINAC=HIT
		MODALITY=P
		INPLANE_AXIS_DIR=TARGET_GUN
		CROSSPLANE_AXIS_DIR=LEFT_RIGHT
		DEPTH_AXIS_DIR=UP_DOWN
		ENERGY=0.00
		SSD=0.00
		FIELD_INPLANE=50.00
		FIELD_CROSSPLANE=50.00
		FIELD_TYPE=RECTANGULAR
		GANTRY=0.00
		GANTRY_UPRIGHT_POSITION=0
		GANTRY_ROTATION=CW
		COLL_ANGLE=90.00
		SCAN_DEVICE=OCTAVIUS_1600_XDR
		ELECTROMETER=DETECTOR_INTERFACE
		ELECTROMETER_SN=5987
		DETECTOR=OCTAVIUS_1600_XDR
		DETECTOR_SN=191760
		FILTER=FF
		SCAN_CURVETYPE=CROSSPLANE_PROFILE
		SCAN_DEPTH=0.00
		SCAN_OFFAXIS_INPLANE=-32.50
		SCAN_ANGLE=0.00
		SCAN_DIAGONAL=NOT_DIAGONAL
		MEAS_PRESET=TIME_PRESET
		MEAS_TIME=20.000
		MEAS_UNIT=GY
		PRESSURE=995.30
		TEMPERATURE=19.10
		NORM_TEMPERATURE=20.00
		CORRECTION_FACTOR=1.1270
		CALIBRATION_FILE=C:\Users\Public\Documents\PTW\Common Files\Calibration Files\230554201_OCTAVIUS1600XDR_191760.cal
		CORRECTIONS=AIR_DENSITY_CORR;FACTOR_CORR;
		BEGIN_DATA
			-32.50		433.43E-06		#1242
			-30.00		474.62E-06		#1206
			-27.50		583.93E-06		#1170
			-25.00		821.28E-06		#1134
			-22.50		1.0952E-03		#1098
			-20.00		1.1494E-03		#1062
			-17.50		1.4924E-03		#1026
			-15.00		1.3379E-03		#990
			-12.50		1.5753E-03		#954
			-10.00		1.5538E-03		#918
			-7.50		1.3680E-03		#882
			-5.00		1.5840E-03		#846
			-2.50		1.5181E-03		#810
			0.00		1.6273E-03		#774
			2.50		1.7132E-03		#738
			5.00		1.5983E-03		#702
			7.50		1.6795E-03		#666
			10.00		1.5425E-03		#630
			12.50		1.5181E-03		#594
			15.00		1.5255E-03		#558
			17.50		1.4539E-03		#522
			20.00		1.2253E-03		#486
			22.50		1.0280E-03		#450
			25.00		693.18E-06		#414
			27.50		593.16E-06		#378
			30.00		312.45E-06		#342
			32.50		278.59E-06		#306
		END_DATA
	END_SCAN  10
	BEGIN_SCAN  11
		TASK_NAME=DOSE
		GROUP_NAME=LR_20.0
		PROGRAM=BeamAdjust 2.3.0.25
		COMMENT=G000, E221_c-dhex3.6_4
		MEAS_DATE=08-Jun-2024 22:00:32
		LINAC=HIT
		MODALITY=P
		INPLANE_AXIS_DIR=TARGET_GUN
		CROSSPLANE_AXIS_DIR=LEFT_RIGHT
		DEPTH_AXIS_DIR=UP_DOWN
		ENERGY=0.00
		SSD=0.00
		FIELD_INPLANE=50.00
		FIELD_CROSSPLANE=50.00
		FIELD_TYPE=RECTANGULAR
		GANTRY=0.00
		GANTRY_UPRIGHT_POSITION=0
		GANTRY_ROTATION=CW
		COLL_ANGLE=90.00
		SCAN_DEVICE=OCTAVIUS_1600_XDR
		ELECTROMETER=DETECTOR_INTERFACE
		ELECTROMETER_SN=5987
		DETECTOR=OCTAVIUS_1600_XDR
		DETECTOR_SN=191760
		FILTER=FF
		SCAN_CURVETYPE=CROSSPLANE_PROFILE
		SCAN_DEPTH=0.00
		SCAN_OFFAXIS_INPLANE=-30.00
		SCAN_ANGLE=0.00
		SCAN_DIAGONAL=NOT_DIAGONAL
		MEAS_PRESET=TIME_PRESET
		MEAS_TIME=20.000
		MEAS_UNIT=GY
		PRESSURE=995.30
		TEMPERATURE=19.10
		NORM_TEMPERATURE=20.00
		CORRECTION_FACTOR=1.1270
		CALIBRATION_FILE=C:\Users\Public\Documents\PTW\Common Files\Calibration Files\230554201_OCTAVIUS1600XDR_191760.cal
		CORRECTIONS=AIR_DENSITY_CORR;FACTOR_CORR;
		BEGIN_DATA
			-75.00		-83.345E-06		#1512
			-70.00		62.818E-06		#1481
			-65.00		-11.014E-06		#1450
			-60.00		-81.820E-06		#1419
			-55.00		132.61E-06		#1388
			-50.00		-42.423E-06		#1357
			-45.00		-78.416E-06		#1326
			-40.00		269.41E-06		#1295
			-35.00		405.52E-06		#1264
			-32.50		432.88E-06		#1241
			-30.00		958.56E-06		#1205
			-27.50		1.3753E-03		#1169
			-25.00		2.5491E-03		#1133
			-22.50		3.1318E-03		#1097
			-20.00		3.9502E-03		#1061
			-17.50		4.0630E-03		#1025
			-15.00		4.1484E-03		#989
			-12.50		4.2280E-03		#953
			-10.00		4.1434E-03		#917
			-7.50		4.3427E-03		#881
			-5.00		4.2837E-03		#845
			-2.50		4.3928E-03		#809
			0.00		4.2382E-03		#773
			2.50		4.4572E-03		#737
			5.00		4.5981E-03		#701
			7.50		4.4590E-03		#665
			10.00		4.3685E-03		#629
			12.50		4.6362E-03		#593
			15.00		4.2003E-03		#557
			17.50		4.1723E-03		#521
			20.00		3.5388E-03		#485
			22.50		2.5602E-03		#449
			25.00		1.4528E-03		#413
			27.50		872.44E-06		#377
			30.00		458.77E-06		#341
			32.50		350.82E-06		#305
			35.00		289.59E-06		#270
			40.00		334.82E-06		#239
			45.00		-74.499E-06		#208
			50.00		87.154E-06		#177
			55.00		86.898E-06		#146
			60.00		10.547E-06		#115
			65.00		25.597E-06		#84
			70.00		140.50E-06		#53
			75.00		-207.27E-06		#22
		END_DATA
	END_SCAN  11
	BEGIN_SCAN  12
		TASK_NAME=DOSE
		GROUP_NAME=LR_20.0
		PROGRAM=BeamAdjust 2.3.0.25
		COMMENT=G000, E221_c-dhex3.6_4
		MEAS_DATE=08-Jun-2024 22:00:32
		LINAC=HIT
		MODALITY=P
		INPLANE_AXIS_DIR=TARGET_GUN
		CROSSPLANE_AXIS_DIR=LEFT_RIGHT
		DEPTH_AXIS_DIR=UP_DOWN
		ENERGY=0.00
		SSD=0.00
		FIELD_INPLANE=50.00
		FIELD_CROSSPLANE=50.00
		FIELD_TYPE=RECTANGULAR
		GANTRY=0.00
		GANTRY_UPRIGHT_POSITION=0
		GANTRY_ROTATION=CW
		COLL_ANGLE=90.00
		SCAN_DEVICE=OCTAVIUS_1600_XDR
		ELECTROMETER=DETECTOR_INTERFACE
		ELECTROMETER_SN=5987
		DETECTOR=OCTAVIUS_1600_XDR
		DETECTOR_SN=191760
		FILTER=FF
		SCAN_CURVETYPE=CROSSPLANE_PROFILE
		SCAN_DEPTH=0.00
		SCAN_OFFAXIS_INPLANE=-27.50
		SCAN_ANGLE=0.00
		SCAN_DIAGONAL=NOT_DIAGONAL
		MEAS_PRESET=TIME_PRESET
		MEAS_TIME=20.000
		MEAS_UNIT=GY
		PRESSURE=995.30
		TEMPERATURE=19.10
		NORM_TEMPERATURE=20.00
		CORRECTION_FACTOR=1.1270
		CALIBRATION_FILE=C:\Users\Public\Documents\PTW\Common Files\Calibration Files\230554201_OCTAVIUS1600XDR_191760.cal
		CORRECTIONS=AIR_DENSITY_CORR;FACTOR_CORR;
		BEGIN_DATA
			-32.50		840.56E-06		#1240
			-30.00		1.8186E-03		#1204
			-27.50		4.0135E-03		#1168
			-25.00		7.5900E-03		#1132
			-22.50		10.939E-03		#1096
			-20.00		12.455E-03		#1060
			-17.50		12.991E-03		#1024
			-15.00		13.608E-03		#988
			-12.50		13.611E-03		#952
			-10.00		13.580E-03		#916
			-7.50		13.638E-03		#880
			-5.00		13.750E-03		#844
			-2.50		13.682E-03		#808
			0.00		13.788E-03		#772
			2.50		13.912E-03		#736
			5.00		13.889E-03		#700
			7.50		14.231E-03		#664
			10.00		14.273E-03		#628
			12.50		14.104E-03		#592
			15.00		13.671E-03		#556
			17.50		12.933E-03		#520
			20.00		10.940E-03		#484
			22.50		7.5719E-03		#448
			25.00		4.0322E-03		#412
			27.50		1.6785E-03		#376
			30.00		720.63E-06		#340
			32.50		423.50E-06		#304
		END_DATA
	END_SCAN  12
	BEGIN_SCAN  13
		TASK_NAME=DOSE
		GROUP_NAME=LR_20.0
		PROGRAM=BeamAdjust 2.3.0.25
		COMMENT=G000, E221_c-dhex3.6_4
		MEAS_DATE=08-Jun-2024 22:00:32
		LINAC=HIT
		MODALITY=P
		INPLANE_AXIS_DIR=TARGET_GUN
		CROSSPLANE_AXIS_DIR=LEFT_RIGHT
		DEPTH_AXIS_DIR=UP_DOWN
		ENERGY=0.00
		SSD=0.00
		FIELD_INPLANE=50.00
		FIELD_CROSSPLANE=50.00
		FIELD_TYPE=RECTANGULAR
		GANTRY=0.00
		GANTRY_UPRIGHT_POSITION=0
		GANTRY_ROTATION=CW
		COLL_ANGLE=90.00
		SCAN_DEVICE=OCTAVIUS_1600_XDR
		ELECTROMETER=DETECTOR_INTERFACE
		ELECTROMETER_SN=5987
		DETECTOR=OCTAVIUS_1600_XDR
		DETECTOR_SN=191760
		FILTER=FF
		SCAN_CURVETYPE=CROSSPLANE_PROFILE
		SCAN_DEPTH=0.00
		SCAN_OFFAXIS_INPLANE=-25.00
		SCAN_ANGLE=0.00
		SCAN_DIAGONAL=NOT_DIAGONAL
		MEAS_PRESET=TIME_PRESET
		MEAS_TIME=20.000
		MEAS_UNIT=GY
		PRESSURE=995.30
		TEMPERATURE=19.10
		NORM_TEMPERATURE=20.00
		CORRECTION_FACTOR=1.1270
		CALIBRATION_FILE=C:\Users\Public\Documents\PTW\Common Files\Calibration Files\230554201_OCTAVIUS1600XDR_191760.cal
		CORRECTIONS=AIR_DENSITY_CORR;FACTOR_CORR;
		BEGIN_DATA
			-75.00		11.347E-06		#1511
			-70.00		32.851E-06		#1480
			-65.00		25.297E-06		#1449
			-60.00		75.391E-06		#1418
			-55.00		21.356E-06		#1387
			-50.00		184.01E-06		#1356
			-45.00		46.259E-06		#1325
			-40.00		326.00E-06		#1294
			-35.00		774.43E-06		#1263
			-32.50		1.3846E-03		#1239
			-30.00		3.8510E-03		#1203
			-27.50		9.6951E-03		#1167
			-25.00		18.526E-03		#1131
			-22.50		26.194E-03		#1095
			-20.00		30.213E-03		#1059
			-17.50		31.869E-03		#1023
			-15.00		32.086E-03		#987
			-12.50		32.757E-03		#951
			-10.00		32.396E-03		#915
			-7.50		32.785E-03		#879
			-5.00		32.741E-03		#843
			-2.50		32.687E-03		#807
			0.00		32.543E-03		#771
			2.50		32.879E-03		#735
			5.00		32.974E-03		#699
			7.50		33.101E-03		#663
			10.00		33.142E-03		#627
			12.50		33.173E-03		#591
			15.00		32.822E-03		#555
			17.50		30.810E-03		#519
			20.00		25.992E-03		#483
			22.50		17.231E-03		#447
			25.00		8.3599E-03		#411
			27.50		2.9012E-03		#375
			30.00		1.0302E-03		#339
			32.50		496.62E-06		#303
			35.00		384.20E-06		#269
			40.00		176.02E-06		#238
			45.00		355.63E-06		#207
			50.00		31.537E-06		#176
			55.00		50.837E-06		#145
			60.00		45.290E-06		#114
			65.00		127.03E-06		#83
			70.00		51.146E-06		#52
			75.00		97.185E-06		#21
		END_DATA
	END_SCAN  13
	BEGIN_SCAN  14
		TASK_NAME=DOSE
		GROUP_NAME=LR_20.0
		PROGRAM=BeamAdjust 2.3.0.25
		COMMENT=G000, E221_c-dhex3.6_4
		MEAS_DATE=08-Jun-2024 22:00:32
		LINAC=HIT
		MODALITY=P
		INPLANE_AXIS_DIR=TARGET_GUN
		CROSSPLANE_AXIS_DIR=LEFT_RIGHT
		DEPTH_AXIS_DIR=UP_DOWN
		ENERGY=0.00
		SSD=0.00
		FIELD_INPLANE=50.00
		FIELD_CROSSPLANE=50.00
		FIELD_TYPE=RECTANGULAR
		GANTRY=0.00
		GANTRY_UPRIGHT_POSITION=0
		GANTRY_ROTATION=CW
		COLL_ANGLE=90.00
		SCAN_DEVICE=OCTAVIUS_1600_XDR
		ELECTROMETER=DETECTOR_INTERFACE
		ELECTROMETER_SN=5987
		DETECTOR=OCTAVIUS_1600_XDR
		DETECTOR_SN=191760
		FILTER=FF
		SCAN_CURVETYPE=CROSSPLANE_PROFILE
		SCAN_DEPTH=0.00
		SCAN_OFFAXIS_INPLANE=-22.50
		SCAN_ANGLE=0.00
		SCAN_DIAGONAL=NOT_DIAGONAL
		MEAS_PRESET=TIME_PRESET
		MEAS_TIME=20.000
		MEAS_UNIT=GY
		PRESSURE=995.30
		TEMPERATURE=19.10
		NORM_TEMPERATURE=20.00
		CORRECTION_FACTOR=1.1270
		CALIBRATION_FILE=C:\Users\Public\Documents\PTW\Common Files\Calibration Files\230554201_OCTAVIUS1600XDR_191760.cal
		CORRECTIONS=AIR_DENSITY_CORR;FACTOR_CORR;
		BEGIN_DATA
			-32.50		1.9015E-03		#1238
			-30.00		6.2140E-03		#1202
			-27.50		16.209E-03		#1166
			-25.00		30.936E-03		#1130
			-22.50		43.708E-03		#1094
			-20.00		50.725E-03		#1058
			-17.50		52.668E-03		#1022
			-15.00		53.044E-03		#986
			-12.50		53.278E-03		#950
			-10.00		53.930E-03		#914
			-7.50		53.557E-03		#878
			-5.00		53.665E-03		#842
			-2.50		53.915E-03		#806
			0.00		53.864E-03		#770
			2.50		54.283E-03		#734
			5.00		54.098E-03		#698
			7.50		54.328E-03		#662
			10.00		53.915E-03		#626
			12.50		53.771E-03		#590
			15.00		53.429E-03		#554
			17.50		50.351E-03		#518
			20.00		41.732E-03		#482
			22.50		27.343E-03		#446
			25.00		13.041E-03		#410
			27.50		4.5731E-03		#374
			30.00		1.4465E-03		#338
			32.50		529.60E-06		#302
		END_DATA
	END_SCAN  14
	BEGIN_SCAN  15
		TASK_NAME=DOSE
		GROUP_NAME=LR_20.0
		PROGRAM=BeamAdjust 2.3.0.25
		COMMENT=G000, E221_c-dhex3.6_4
		MEAS_DATE=08-Jun-2024 22:00:32
		LINAC=HIT
		MODALITY=P
		INPLANE_AXIS_DIR=TARGET_GUN
		CROSSPLANE_AXIS_DIR=LEFT_RIGHT
		DEPTH_AXIS_DIR=UP_DOWN
		ENERGY=0.00
		SSD=0.00
		FIELD_INPLANE=50.00
		FIELD_CROSSPLANE=50.00
		FIELD_TYPE=RECTANGULAR
		GANTRY=0.00
		GANTRY_UPRIGHT_POSITION=0
		GANTRY_ROTATION=CW
		COLL_ANGLE=90.00
		SCAN_DEVICE=OCTAVIUS_1600_XDR
		ELECTROMETER=DETECTOR_INTERFACE
		ELECTROMETER_SN=5987
		DETECTOR=OCTAVIUS_1600_XDR
		DETECTOR_SN=191760
		FILTER=FF
		SCAN_CURVETYPE=CROSSPLANE_PROFILE
		SCAN_DEPTH=0.00
		SCAN_OFFAXIS_INPLANE=-20.00
		SCAN_ANGLE=0.00
		SCAN_DIAGONAL=NOT_DIAGONAL
		MEAS_PRESET=TIME_PRESET
		MEAS_TIME=20.000
		MEAS_UNIT=GY
		PRESSURE=995.30
		TEMPERATURE=19.10
		NORM_TEMPERATURE=20.00
		CORRECTION_FACTOR=1.1270
		CALIBRATION_FILE=C:\Users\Public\Documents\PTW\Common Files\Calibration Files\230554201_OCTAVIUS1600XDR_191760.cal
		CORRECTIONS=AIR_DENSITY_CORR;FACTOR_CORR;
		BEGIN_DATA
			-75.00		97.240E-06		#1510
			-70.00		138.52E-06		#1479
			-65.00		37.116E-06		#1448
			-60.00		-78.515E-06		#1417
			-55.00		-42.721E-06		#1386
			-50.00		-20.828E-06		#1355
			-45.00		149.67E-06		#1324
			-40.00		335.14E-06		#1293
			-35.00		748.90E-06		#1262
			-32.50		2.4123E-03		#1237
			-30.00		7.9000E-03		#1201
			-27.50		20.415E-03		#1165
			-25.00		39.674E-03		#1129
			-22.50		55.710E-03		#1093
			-20.00		63.676E-03		#1057
			-17.50		66.470E-03		#1021
			-15.00		67.502E-03		#985
			-12.50		67.393E-03		#949
			-10.00		67.114E-03		#913
			-7.50		67.590E-03		#877
			-5.00		67.326E-03		#841
			-2.50		67.610E-03		#805
			0.00		67.229E-03		#769
			2.50		67.678E-03		#733
			5.00		67.866E-03		#697
			7.50		67.668E-03		#661
			10.00		67.477E-03		#625
			12.50		67.601E-03		#589
			15.00		66.509E-03		#553
			17.50		62.502E-03		#517
			20.00		51.865E-03		#481
			22.50		33.215E-03		#445
			25.00		15.527E-03		#409
			27.50		5.2664E-03		#373
			30.00		1.8079E-03		#337
			32.50		877.04E-06		#301
			35.00		359.56E-06		#268
			40.00		172.48E-06		#237
			45.00		232.79E-06		#206
			50.00		99.755E-06		#175
			55.00		194.28E-06		#144
			60.00		308.40E-06		#113
			65.00		86.953E-06		#82
			70.00		-74.836E-06		#51
			75.00		-11.922E-06		#20
		END_DATA
	END_SCAN  15
