BEGIN_SCAN_DATA
	FORMAT=CC-Export V1.9                  
	FILE_CREATION_DATE=08-Jun-2024 21:49:50
	LAST_MODIFIED=08-Jun-2024 21:49:50
	BEGIN_SCAN  1
		TASK_NAME=DOSE
		GROUP_NAME=LR_50.4
		PROGRAM=BeamAdjust 2.3.0.25
		COMMENT=G000, E221_c-dhex3.6_4
		MEAS_DATE=08-Jun-2024 21:49:42
		LINAC=HIT
		MODALITY=P
		INPLANE_AXIS_DIR=TARGET_GUN
		CROSSPLANE_AXIS_DIR=LEFT_RIGHT
		DEPTH_AXIS_DIR=UP_DOWN
		ENERGY=0.00
		SSD=0.00
		FIELD_INPLANE=50.00
		FIELD_CROSSPLANE=50.00
		FIELD_TYPE=RECTANGULAR
		GANTRY=0.00
		GANTRY_UPRIGHT_POSITION=0
		GANTRY_ROTATION=CW
		COLL_ANGLE=90.00
		SCAN_DEVICE=OCTAVIUS_1600_XDR
		ELECTROMETER=DETECTOR_INTERFACE
		ELECTROMETER_SN=5987
		DETECTOR=OCTAVIUS_1600_XDR
		DETECTOR_SN=191760
		FILTER=FF
		SCAN_CURVETYPE=CROSSPLANE_PROFILE
		SCAN_DEPTH=0.00
		SCAN_OFFAXIS_INPLANE=-75.00
		SCAN_ANGLE=0.00
		SCAN_DIAGONAL=NOT_DIAGONAL
		MEAS_PRESET=TIME_PRESET
		MEAS_TIME=50.400
		MEAS_UNIT=GY
		PRESSURE=995.30
		TEMPERATURE=19.10
		NORM_TEMPERATURE=20.00
		CORRECTION_FACTOR=1.1270
		CALIBRATION_FILE=C:\Users\Public\Documents\PTW\Common Files\Calibration Files\230554201_OCTAVIUS1600XDR_191760.cal
		CORRECTIONS=AIR_DENSITY_CORR;FACTOR_CORR;
		BEGIN_DATA
			-75.00		92.844E-06		#1521
			-70.00		-894.38E-09		#1490
			-65.00		164.39E-06		#1459
			-60.00		-50.681E-06		#1428
			-55.00		-64.555E-06		#1397
			-50.00		66.854E-06		#1366
			-45.00		-65.475E-06		#1335
			-40.00		8.2247E-06		#1304
			-35.00		-56.941E-06		#1273
			-30.00		276.89E-06		#1215
			-25.00		722.81E-06		#1143
			-20.00		-18.838E-06		#1071
			-15.00		376.87E-06		#999
			-10.00		128.28E-06		#927
			-5.00		226.07E-06		#855
			0.00		102.98E-06		#783
			5.00		124.20E-06		#711
			10.00		71.071E-06		#639
			15.00		198.56E-06		#567
			20.00		-17.411E-06		#495
			25.00		207.39E-06		#423
			30.00		-421.54E-06		#351
			35.00		704.64E-06		#279
			40.00		653.55E-06		#248
			45.00		-88.319E-06		#217
			50.00		-153.01E-06		#186
			55.00		94.802E-06		#155
			60.00		-271.01E-06		#124
			65.00		183.50E-06		#93
			70.00		496.55E-06		#62
			75.00		-329.73E-06		#31
		END_DATA
	END_SCAN  1
	BEGIN_SCAN  2
		TASK_NAME=DOSE
		GROUP_NAME=LR_50.4
		PROGRAM=BeamAdjust 2.3.0.25
		COMMENT=G000, E221_c-dhex3.6_4
		MEAS_DATE=08-Jun-2024 21:49:42
		LINAC=HIT
		MODALITY=P
		INPLANE_AXIS_DIR=TARGET_GUN
		CROSSPLANE_AXIS_DIR=LEFT_RIGHT
		DEPTH_AXIS_DIR=UP_DOWN
		ENERGY=0.00
		SSD=0.00
		FIELD_INPLANE=50.00
		FIELD_CROSSPLANE=50.00
		FIELD_TYPE=RECTANGULAR
		GANTRY=0.00
		GANTRY_UPRIGHT_POSITION=0
		GANTRY_ROTATION=CW
		COLL_ANGLE=90.00
		SCAN_DEVICE=OCTAVIUS_1600_XDR
		ELECTROMETER=DETECTOR_INTERFACE
		ELECTROMETER_SN=5987
		DETECTOR=OCTAVIUS_1600_XDR
		DETECTOR_SN=191760
		FILTER=FF
		SCAN_CURVETYPE=CROSSPLANE_PROFILE
		SCAN_DEPTH=0.00
		SCAN_OFFAXIS_INPLANE=-70.00
		SCAN_ANGLE=0.00
		SCAN_DIAGONAL=NOT_DIAGONAL
		MEAS_PRESET=TIME_PRESET
		MEAS_TIME=50.400
		MEAS_UNIT=GY
		PRESSURE=995.30
		TEMPERATURE=19.10
		NORM_TEMPERATURE=20.00
		CORRECTION_FACTOR=1.1270
		CALIBRATION_FILE=C:\Users\Public\Documents\PTW\Common Files\Calibration Files\230554201_OCTAVIUS1600XDR_191760.cal
		CORRECTIONS=AIR_DENSITY_CORR;FACTOR_CORR;
		BEGIN_DATA
			-75.00		258.04E-06		#1520
			-70.00		314.52E-06		#1489
			-65.00		72.993E-06		#1458
			-60.00		-165.68E-06		#1427
			-55.00		-111.23E-06		#1396
			-50.00		-54.002E-06		#1365
			-45.00		273.45E-06		#1334
			-40.00		23.465E-06		#1303
			-35.00		690.61E-06		#1272
			-30.00		283.63E-06		#1214
			-25.00		-54.501E-06		#1142
			-20.00		90.763E-06		#1070
			-15.00		172.29E-06		#998
			-10.00		137.01E-06		#926
			-5.00		567.34E-06		#854
			0.00		348.66E-06		#782
			5.00		27.023E-06		#710
			10.00		70.656E-06		#638
			15.00		349.37E-06		#566
			20.00		-371.54E-06		#494
			25.00		472.47E-06		#422
			30.00		309.19E-06		#350
			35.00		218.18E-06		#278
			40.00		-198.26E-06		#247
			45.00		-126.55E-06		#216
			50.00		305.48E-06		#185
			55.00		157.43E-06		#154
			60.00		172.27E-06		#123
			65.00		-18.261E-06		#92
			70.00		-11.330E-06		#61
			75.00		407.99E-06		#30
		END_DATA
	END_SCAN  2
	BEGIN_SCAN  3
		TASK_NAME=DOSE
		GROUP_NAME=LR_50.4
		PROGRAM=BeamAdjust 2.3.0.25
		COMMENT=G000, E221_c-dhex3.6_4
		MEAS_DATE=08-Jun-2024 21:49:42
		LINAC=HIT
		MODALITY=P
		INPLANE_AXIS_DIR=TARGET_GUN
		CROSSPLANE_AXIS_DIR=LEFT_RIGHT
		DEPTH_AXIS_DIR=UP_DOWN
		ENERGY=0.00
		SSD=0.00
		FIELD_INPLANE=50.00
		FIELD_CROSSPLANE=50.00
		FIELD_TYPE=RECTANGULAR
		GANTRY=0.00
		GANTRY_UPRIGHT_POSITION=0
		GANTRY_ROTATION=CW
		COLL_ANGLE=90.00
		SCAN_DEVICE=OCTAVIUS_1600_XDR
		ELECTROMETER=DETECTOR_INTERFACE
		ELECTROMETER_SN=5987
		DETECTOR=OCTAVIUS_1600_XDR
		DETECTOR_SN=191760
		FILTER=FF
		SCAN_CURVETYPE=CROSSPLANE_PROFILE
		SCAN_DEPTH=0.00
		SCAN_OFFAXIS_INPLANE=-65.00
		SCAN_ANGLE=0.00
		SCAN_DIAGONAL=NOT_DIAGONAL
		MEAS_PRESET=TIME_PRESET
		MEAS_TIME=50.400
		MEAS_UNIT=GY
		PRESSURE=995.30
		TEMPERATURE=19.10
		NORM_TEMPERATURE=20.00
		CORRECTION_FACTOR=1.1270
		CALIBRATION_FILE=C:\Users\Public\Documents\PTW\Common Files\Calibration Files\230554201_OCTAVIUS1600XDR_191760.cal
		CORRECTIONS=AIR_DENSITY_CORR;FACTOR_CORR;
		BEGIN_DATA
			-75.00		-116.37E-06		#1519
			-70.00		-175.56E-06		#1488
			-65.00		282.71E-06		#1457
			-60.00		-99.903E-06		#1426
			-55.00		176.10E-06		#1395
			-50.00		452.20E-06		#1364
			-45.00		-65.928E-06		#1333
			-40.00		110.17E-06		#1302
			-35.00		216.75E-06		#1271
			-30.00		217.66E-06		#1213
			-25.00		67.030E-06		#1141
			-20.00		37.860E-06		#1069
			-15.00		433.76E-06		#997
			-10.00		335.34E-06		#925
			-5.00		358.97E-06		#853
			0.00		246.67E-06		#781
			5.00		136.48E-06		#709
			10.00		385.37E-06		#637
			15.00		48.472E-06		#565
			20.00		-223.42E-06		#493
			25.00		350.94E-06		#421
			30.00		70.414E-06		#349
			35.00		335.57E-06		#277
			40.00		-221.19E-06		#246
			45.00		395.34E-06		#215
			50.00		-25.229E-06		#184
			55.00		3.6976E-06		#153
			60.00		187.75E-06		#122
			65.00		-76.812E-06		#91
			70.00		19.917E-06		#60
			75.00		-70.892E-06		#29
		END_DATA
	END_SCAN  3
	BEGIN_SCAN  4
		TASK_NAME=DOSE
		GROUP_NAME=LR_50.4
		PROGRAM=BeamAdjust 2.3.0.25
		COMMENT=G000, E221_c-dhex3.6_4
		MEAS_DATE=08-Jun-2024 21:49:42
		LINAC=HIT
		MODALITY=P
		INPLANE_AXIS_DIR=TARGET_GUN
		CROSSPLANE_AXIS_DIR=LEFT_RIGHT
		DEPTH_AXIS_DIR=UP_DOWN
		ENERGY=0.00
		SSD=0.00
		FIELD_INPLANE=50.00
		FIELD_CROSSPLANE=50.00
		FIELD_TYPE=RECTANGULAR
		GANTRY=0.00
		GANTRY_UPRIGHT_POSITION=0
		GANTRY_ROTATION=CW
		COLL_ANGLE=90.00
		SCAN_DEVICE=OCTAVIUS_1600_XDR
		ELECTROMETER=DETECTOR_INTERFACE
		ELECTROMETER_SN=5987
		DETECTOR=OCTAVIUS_1600_XDR
		DETECTOR_SN=191760
		FILTER=FF
		SCAN_CURVETYPE=CROSSPLANE_PROFILE
		SCAN_DEPTH=0.00
		SCAN_OFFAXIS_INPLANE=-60.00
		SCAN_ANGLE=0.00
		SCAN_DIAGONAL=NOT_DIAGONAL
		MEAS_PRESET=TIME_PRESET
		MEAS_TIME=50.400
		MEAS_UNIT=GY
		PRESSURE=995.30
		TEMPERATURE=19.10
		NORM_TEMPERATURE=20.00
		CORRECTION_FACTOR=1.1270
		CALIBRATION_FILE=C:\Users\Public\Documents\PTW\Common Files\Calibration Files\230554201_OCTAVIUS1600XDR_191760.cal
		CORRECTIONS=AIR_DENSITY_CORR;FACTOR_CORR;
		BEGIN_DATA
			-75.00		400.45E-06		#1518
			-70.00		132.36E-06		#1487
			-65.00		223.74E-06		#1456
			-60.00		119.10E-06		#1425
			-55.00		197.59E-06		#1394
			-50.00		229.91E-06		#1363
			-45.00		120.21E-06		#1332
			-40.00		422.59E-06		#1301
			-35.00		149.85E-06		#1270
			-30.00		198.24E-06		#1212
			-25.00		368.19E-06		#1140
			-20.00		329.51E-06		#1068
			-15.00		396.22E-06		#996
			-10.00		554.57E-06		#924
			-5.00		650.44E-06		#852
			0.00		292.60E-06		#780
			5.00		444.51E-06		#708
			10.00		681.25E-06		#636
			15.00		598.89E-06		#564
			20.00		360.69E-06		#492
			25.00		172.59E-06		#420
			30.00		349.27E-06		#348
			35.00		77.006E-06		#276
			40.00		505.32E-06		#245
			45.00		190.51E-06		#214
			50.00		186.77E-06		#183
			55.00		204.56E-06		#152
			60.00		413.46E-06		#121
			65.00		360.31E-06		#90
			70.00		242.68E-06		#59
			75.00		526.33E-06		#28
		END_DATA
	END_SCAN  4
	BEGIN_SCAN  5
		TASK_NAME=DOSE
		GROUP_NAME=LR_50.4
		PROGRAM=BeamAdjust 2.3.0.25
		COMMENT=G000, E221_c-dhex3.6_4
		MEAS_DATE=08-Jun-2024 21:49:42
		LINAC=HIT
		MODALITY=P
		INPLANE_AXIS_DIR=TARGET_GUN
		CROSSPLANE_AXIS_DIR=LEFT_RIGHT
		DEPTH_AXIS_DIR=UP_DOWN
		ENERGY=0.00
		SSD=0.00
		FIELD_INPLANE=50.00
		FIELD_CROSSPLANE=50.00
		FIELD_TYPE=RECTANGULAR
		GANTRY=0.00
		GANTRY_UPRIGHT_POSITION=0
		GANTRY_ROTATION=CW
		COLL_ANGLE=90.00
		SCAN_DEVICE=OCTAVIUS_1600_XDR
		ELECTROMETER=DETECTOR_INTERFACE
		ELECTROMETER_SN=5987
		DETECTOR=OCTAVIUS_1600_XDR
		DETECTOR_SN=191760
		FILTER=FF
		SCAN_CURVETYPE=CROSSPLANE_PROFILE
		SCAN_DEPTH=0.00
		SCAN_OFFAXIS_INPLANE=-55.00
		SCAN_ANGLE=0.00
		SCAN_DIAGONAL=NOT_DIAGONAL
		MEAS_PRESET=TIME_PRESET
		MEAS_TIME=50.400
		MEAS_UNIT=GY
		PRESSURE=995.30
		TEMPERATURE=19.10
		NORM_TEMPERATURE=20.00
		CORRECTION_FACTOR=1.1270
		CALIBRATION_FILE=C:\Users\Public\Documents\PTW\Common Files\Calibration Files\230554201_OCTAVIUS1600XDR_191760.cal
		CORRECTIONS=AIR_DENSITY_CORR;FACTOR_CORR;
		BEGIN_DATA
			-75.00		-103.96E-06		#1517
			-70.00		191.85E-06		#1486
			-65.00		42.808E-06		#1455
			-60.00		27.969E-06		#1424
			-55.00		274.84E-06		#1393
			-50.00		131.15E-06		#1362
			-45.00		342.44E-06		#1331
			-40.00		213.23E-06		#1300
			-35.00		524.85E-06		#1269
			-30.00		314.67E-06		#1211
			-25.00		543.35E-06		#1139
			-20.00		262.50E-06		#1067
			-15.00		561.85E-06		#995
			-10.00		321.87E-06		#923
			-5.00		347.12E-06		#851
			0.00		365.23E-06		#779
			5.00		550.84E-06		#707
			10.00		633.38E-06		#635
			15.00		641.12E-06		#563
			20.00		645.93E-06		#491
			25.00		68.527E-06		#419
			30.00		204.21E-06		#347
			35.00		278.13E-06		#275
			40.00		-113.53E-06		#244
			45.00		716.58E-06		#213
			50.00		319.93E-06		#182
			55.00		435.90E-06		#151
			60.00		29.874E-06		#120
			65.00		-21.593E-06		#89
			70.00		-99.797E-06		#58
			75.00		-330.63E-06		#27
		END_DATA
	END_SCAN  5
	BEGIN_SCAN  6
		TASK_NAME=DOSE
		GROUP_NAME=LR_50.4
		PROGRAM=BeamAdjust 2.3.0.25
		COMMENT=G000, E221_c-dhex3.6_4
		MEAS_DATE=08-Jun-2024 21:49:42
		LINAC=HIT
		MODALITY=P
		INPLANE_AXIS_DIR=TARGET_GUN
		CROSSPLANE_AXIS_DIR=LEFT_RIGHT
		DEPTH_AXIS_DIR=UP_DOWN
		ENERGY=0.00
		SSD=0.00
		FIELD_INPLANE=50.00
		FIELD_CROSSPLANE=50.00
		FIELD_TYPE=RECTANGULAR
		GANTRY=0.00
		GANTRY_UPRIGHT_POSITION=0
		GANTRY_ROTATION=CW
		COLL_ANGLE=90.00
		SCAN_DEVICE=OCTAVIUS_1600_XDR
		ELECTROMETER=DETECTOR_INTERFACE
		ELECTROMETER_SN=5987
		DETECTOR=OCTAVIUS_1600_XDR
		DETECTOR_SN=191760
		FILTER=FF
		SCAN_CURVETYPE=CROSSPLANE_PROFILE
		SCAN_DEPTH=0.00
		SCAN_OFFAXIS_INPLANE=-50.00
		SCAN_ANGLE=0.00
		SCAN_DIAGONAL=NOT_DIAGONAL
		MEAS_PRESET=TIME_PRESET
		MEAS_TIME=50.400
		MEAS_UNIT=GY
		PRESSURE=995.30
		TEMPERATURE=19.10
		NORM_TEMPERATURE=20.00
		CORRECTION_FACTOR=1.1270
		CALIBRATION_FILE=C:\Users\Public\Documents\PTW\Common Files\Calibration Files\230554201_OCTAVIUS1600XDR_191760.cal
		CORRECTIONS=AIR_DENSITY_CORR;FACTOR_CORR;
		BEGIN_DATA
			-75.00		103.55E-06		#1516
			-70.00		-27.061E-06		#1485
			-65.00		-58.652E-06		#1454
			-60.00		54.421E-06		#1423
			-55.00		178.69E-06		#1392
			-50.00		186.50E-06		#1361
			-45.00		489.77E-06		#1330
			-40.00		718.61E-06		#1299
			-35.00		382.83E-06		#1268
			-30.00		1.1363E-03		#1210
			-25.00		766.88E-06		#1138
			-20.00		785.41E-06		#1066
			-15.00		817.52E-06		#994
			-10.00		767.74E-06		#922
			-5.00		1.0463E-03		#850
			0.00		1.1350E-03		#778
			5.00		855.21E-06		#706
			10.00		1.3011E-03		#634
			15.00		796.91E-06		#562
			20.00		1.0549E-03		#490
			25.00		863.91E-06		#418
			30.00		782.18E-06		#346
			35.00		529.98E-06		#274
			40.00		449.50E-06		#243
			45.00		-2.4419E-06		#212
			50.00		-37.983E-06		#181
			55.00		113.15E-06		#150
			60.00		-147.70E-06		#119
			65.00		441.54E-06		#88
			70.00		491.19E-06		#57
			75.00		-151.98E-06		#26
		END_DATA
	END_SCAN  6
	BEGIN_SCAN  7
		TASK_NAME=DOSE
		GROUP_NAME=LR_50.4
		PROGRAM=BeamAdjust 2.3.0.25
		COMMENT=G000, E221_c-dhex3.6_4
		MEAS_DATE=08-Jun-2024 21:49:42
		LINAC=HIT
		MODALITY=P
		INPLANE_AXIS_DIR=TARGET_GUN
		CROSSPLANE_AXIS_DIR=LEFT_RIGHT
		DEPTH_AXIS_DIR=UP_DOWN
		ENERGY=0.00
		SSD=0.00
		FIELD_INPLANE=50.00
		FIELD_CROSSPLANE=50.00
		FIELD_TYPE=RECTANGULAR
		GANTRY=0.00
		GANTRY_UPRIGHT_POSITION=0
		GANTRY_ROTATION=CW
		COLL_ANGLE=90.00
		SCAN_DEVICE=OCTAVIUS_1600_XDR
		ELECTROMETER=DETECTOR_INTERFACE
		ELECTROMETER_SN=5987
		DETECTOR=OCTAVIUS_1600_XDR
		DETECTOR_SN=191760
		FILTER=FF
		SCAN_CURVETYPE=CROSSPLANE_PROFILE
		SCAN_DEPTH=0.00
		SCAN_OFFAXIS_INPLANE=-45.00
		SCAN_ANGLE=0.00
		SCAN_DIAGONAL=NOT_DIAGONAL
		MEAS_PRESET=TIME_PRESET
		MEAS_TIME=50.400
		MEAS_UNIT=GY
		PRESSURE=995.30
		TEMPERATURE=19.10
		NORM_TEMPERATURE=20.00
		CORRECTION_FACTOR=1.1270
		CALIBRATION_FILE=C:\Users\Public\Documents\PTW\Common Files\Calibration Files\230554201_OCTAVIUS1600XDR_191760.cal
		CORRECTIONS=AIR_DENSITY_CORR;FACTOR_CORR;
		BEGIN_DATA
			-75.00		212.93E-06		#1515
			-70.00		21.737E-06		#1484
			-65.00		88.327E-06		#1453
			-60.00		-86.739E-06		#1422
			-55.00		163.83E-06		#1391
			-50.00		401.28E-06		#1360
			-45.00		534.95E-06		#1329
			-40.00		864.88E-06		#1298
			-35.00		1.7789E-03		#1267
			-30.00		3.0272E-03		#1209
			-25.00		3.0355E-03		#1137
			-20.00		3.2540E-03		#1065
			-15.00		3.3944E-03		#993
			-10.00		3.4587E-03		#921
			-5.00		3.6444E-03		#849
			0.00		3.6726E-03		#777
			5.00		3.7556E-03		#705
			10.00		3.6428E-03		#633
			15.00		3.4067E-03		#561
			20.00		3.3412E-03		#489
			25.00		3.2884E-03		#417
			30.00		3.1659E-03		#345
			35.00		1.9020E-03		#273
			40.00		698.08E-06		#242
			45.00		710.33E-06		#211
			50.00		349.66E-06		#180
			55.00		-16.764E-06		#149
			60.00		336.59E-06		#118
			65.00		470.39E-06		#87
			70.00		260.42E-06		#56
			75.00		-112.85E-06		#25
		END_DATA
	END_SCAN  7
	BEGIN_SCAN  8
		TASK_NAME=DOSE
		GROUP_NAME=LR_50.4
		PROGRAM=BeamAdjust 2.3.0.25
		COMMENT=G000, E221_c-dhex3.6_4
		MEAS_DATE=08-Jun-2024 21:49:42
		LINAC=HIT
		MODALITY=P
		INPLANE_AXIS_DIR=TARGET_GUN
		CROSSPLANE_AXIS_DIR=LEFT_RIGHT
		DEPTH_AXIS_DIR=UP_DOWN
		ENERGY=0.00
		SSD=0.00
		FIELD_INPLANE=50.00
		FIELD_CROSSPLANE=50.00
		FIELD_TYPE=RECTANGULAR
		GANTRY=0.00
		GANTRY_UPRIGHT_POSITION=0
		GANTRY_ROTATION=CW
		COLL_ANGLE=90.00
		SCAN_DEVICE=OCTAVIUS_1600_XDR
		ELECTROMETER=DETECTOR_INTERFACE
		ELECTROMETER_SN=5987
		DETECTOR=OCTAVIUS_1600_XDR
		DETECTOR_SN=191760
		FILTER=FF
		SCAN_CURVETYPE=CROSSPLANE_PROFILE
		SCAN_DEPTH=0.00
		SCAN_OFFAXIS_INPLANE=-40.00
		SCAN_ANGLE=0.00
		SCAN_DIAGONAL=NOT_DIAGONAL
		MEAS_PRESET=TIME_PRESET
		MEAS_TIME=50.400
		MEAS_UNIT=GY
		PRESSURE=995.30
		TEMPERATURE=19.10
		NORM_TEMPERATURE=20.00
		CORRECTION_FACTOR=1.1270
		CALIBRATION_FILE=C:\Users\Public\Documents\PTW\Common Files\Calibration Files\230554201_OCTAVIUS1600XDR_191760.cal
		CORRECTIONS=AIR_DENSITY_CORR;FACTOR_CORR;
		BEGIN_DATA
			-75.00		2.1481E-06		#1514
			-70.00		-23.164E-06		#1483
			-65.00		217.52E-06		#1452
			-60.00		106.50E-06		#1421
			-55.00		500.23E-06		#1390
			-50.00		756.06E-06		#1359
			-45.00		1.2076E-03		#1328
			-40.00		7.1404E-03		#1297
			-35.00		22.726E-03		#1266
			-30.00		28.920E-03		#1208
			-25.00		30.606E-03		#1136
			-20.00		30.614E-03		#1064
			-15.00		30.669E-03		#992
			-10.00		30.484E-03		#920
			-5.00		30.972E-03		#848
			0.00		31.511E-03		#776
			5.00		32.361E-03		#704
			10.00		32.084E-03		#632
			15.00		31.837E-03		#560
			20.00		32.839E-03		#488
			25.00		33.264E-03		#416
			30.00		30.538E-03		#344
			35.00		16.170E-03		#272
			40.00		2.7211E-03		#241
			45.00		978.82E-06		#210
			50.00		-65.329E-06		#179
			55.00		445.74E-06		#148
			60.00		254.40E-06		#117
			65.00		564.87E-06		#86
			70.00		106.82E-06		#55
			75.00		326.10E-06		#24
		END_DATA
	END_SCAN  8
	BEGIN_SCAN  9
		TASK_NAME=DOSE
		GROUP_NAME=LR_50.4
		PROGRAM=BeamAdjust 2.3.0.25
		COMMENT=G000, E221_c-dhex3.6_4
		MEAS_DATE=08-Jun-2024 21:49:42
		LINAC=HIT
		MODALITY=P
		INPLANE_AXIS_DIR=TARGET_GUN
		CROSSPLANE_AXIS_DIR=LEFT_RIGHT
		DEPTH_AXIS_DIR=UP_DOWN
		ENERGY=0.00
		SSD=0.00
		FIELD_INPLANE=50.00
		FIELD_CROSSPLANE=50.00
		FIELD_TYPE=RECTANGULAR
		GANTRY=0.00
		GANTRY_UPRIGHT_POSITION=0
		GANTRY_ROTATION=CW
		COLL_ANGLE=90.00
		SCAN_DEVICE=OCTAVIUS_1600_XDR
		ELECTROMETER=DETECTOR_INTERFACE
		ELECTROMETER_SN=5987
		DETECTOR=OCTAVIUS_1600_XDR
		DETECTOR_SN=191760
		FILTER=FF
		SCAN_CURVETYPE=CROSSPLANE_PROFILE
		SCAN_DEPTH=0.00
		SCAN_OFFAXIS_INPLANE=-35.00
		SCAN_ANGLE=0.00
		SCAN_DIAGONAL=NOT_DIAGONAL
		MEAS_PRESET=TIME_PRESET
		MEAS_TIME=50.400
		MEAS_UNIT=GY
		PRESSURE=995.30
		TEMPERATURE=19.10
		NORM_TEMPERATURE=20.00
		CORRECTION_FACTOR=1.1270
		CALIBRATION_FILE=C:\Users\Public\Documents\PTW\Common Files\Calibration Files\230554201_OCTAVIUS1600XDR_191760.cal
		CORRECTIONS=AIR_DENSITY_CORR;FACTOR_CORR;
		BEGIN_DATA
			-75.00		531.03E-06		#1513
			-70.00		-119.30E-06		#1482
			-65.00		94.256E-06		#1451
			-60.00		368.36E-06		#1420
			-55.00		495.16E-06		#1389
			-50.00		809.12E-06		#1358
			-45.00		2.7164E-03		#1327
			-40.00		24.764E-03		#1296
			-35.00		78.595E-03		#1265
			-30.00		96.314E-03		#1207
			-25.00		98.185E-03		#1135
			-20.00		99.483E-03		#1063
			-15.00		98.885E-03		#991
			-10.00		99.101E-03		#919
			-5.00		99.505E-03		#847
			0.00		99.862E-03		#775
			5.00		99.839E-03		#703
			10.00		100.79E-03		#631
			15.00		99.548E-03		#559
			20.00		101.70E-03		#487
			25.00		101.55E-03		#415
			30.00		92.496E-03		#343
			35.00		45.787E-03		#271
			40.00		6.1268E-03		#240
			45.00		645.06E-06		#209
			50.00		-102.10E-06		#178
			55.00		118.88E-06		#147
			60.00		219.58E-06		#116
			65.00		108.74E-06		#85
			70.00		237.59E-06		#54
			75.00		-92.081E-06		#23
		END_DATA
	END_SCAN  9
	BEGIN_SCAN  10
		TASK_NAME=DOSE
		GROUP_NAME=LR_50.4
		PROGRAM=BeamAdjust 2.3.0.25
		COMMENT=G000, E221_c-dhex3.6_4
		MEAS_DATE=08-Jun-2024 21:49:42
		LINAC=HIT
		MODALITY=P
		INPLANE_AXIS_DIR=TARGET_GUN
		CROSSPLANE_AXIS_DIR=LEFT_RIGHT
		DEPTH_AXIS_DIR=UP_DOWN
		ENERGY=0.00
		SSD=0.00
		FIELD_INPLANE=50.00
		FIELD_CROSSPLANE=50.00
		FIELD_TYPE=RECTANGULAR
		GANTRY=0.00
		GANTRY_UPRIGHT_POSITION=0
		GANTRY_ROTATION=CW
		COLL_ANGLE=90.00
		SCAN_DEVICE=OCTAVIUS_1600_XDR
		ELECTROMETER=DETECTOR_INTERFACE
		ELECTROMETER_SN=5987
		DETECTOR=OCTAVIUS_1600_XDR
		DETECTOR_SN=191760
		FILTER=FF
		SCAN_CURVETYPE=CROSSPLANE_PROFILE
		SCAN_DEPTH=0.00
		SCAN_OFFAXIS_INPLANE=-32.50
		SCAN_ANGLE=0.00
		SCAN_DIAGONAL=NOT_DIAGONAL
		MEAS_PRESET=TIME_PRESET
		MEAS_TIME=50.400
		MEAS_UNIT=GY
		PRESSURE=995.30
		TEMPERATURE=19.10
		NORM_TEMPERATURE=20.00
		CORRECTION_FACTOR=1.1270
		CALIBRATION_FILE=C:\Users\Public\Documents\PTW\Common Files\Calibration Files\230554201_OCTAVIUS1600XDR_191760.cal
		CORRECTIONS=AIR_DENSITY_CORR;FACTOR_CORR;
		BEGIN_DATA
			-32.50		110.03E-03		#1242
			-30.00		115.41E-03		#1206
			-27.50		116.56E-03		#1170
			-25.00		116.89E-03		#1134
			-22.50		115.56E-03		#1098
			-20.00		117.13E-03		#1062
			-17.50		117.69E-03		#1026
			-15.00		117.24E-03		#990
			-12.50		117.72E-03		#954
			-10.00		117.08E-03		#918
			-7.50		116.54E-03		#882
			-5.00		116.77E-03		#846
			-2.50		117.53E-03		#810
			0.00		117.36E-03		#774
			2.50		116.47E-03		#738
			5.00		117.53E-03		#702
			7.50		117.04E-03		#666
			10.00		118.17E-03		#630
			12.50		118.33E-03		#594
			15.00		117.39E-03		#558
			17.50		119.77E-03		#522
			20.00		118.89E-03		#486
			22.50		119.36E-03		#450
			25.00		118.08E-03		#414
			27.50		115.83E-03		#378
			30.00		107.84E-03		#342
			32.50		85.138E-03		#306
		END_DATA
	END_SCAN  10
	BEGIN_SCAN  11
		TASK_NAME=DOSE
		GROUP_NAME=LR_50.4
		PROGRAM=BeamAdjust 2.3.0.25
		COMMENT=G000, E221_c-dhex3.6_4
		MEAS_DATE=08-Jun-2024 21:49:42
		LINAC=HIT
		MODALITY=P
		INPLANE_AXIS_DIR=TARGET_GUN
		CROSSPLANE_AXIS_DIR=LEFT_RIGHT
		DEPTH_AXIS_DIR=UP_DOWN
		ENERGY=0.00
		SSD=0.00
		FIELD_INPLANE=50.00
		FIELD_CROSSPLANE=50.00
		FIELD_TYPE=RECTANGULAR
		GANTRY=0.00
		GANTRY_UPRIGHT_POSITION=0
		GANTRY_ROTATION=CW
		COLL_ANGLE=90.00
		SCAN_DEVICE=OCTAVIUS_1600_XDR
		ELECTROMETER=DETECTOR_INTERFACE
		ELECTROMETER_SN=5987
		DETECTOR=OCTAVIUS_1600_XDR
		DETECTOR_SN=191760
		FILTER=FF
		SCAN_CURVETYPE=CROSSPLANE_PROFILE
		SCAN_DEPTH=0.00
		SCAN_OFFAXIS_INPLANE=-30.00
		SCAN_ANGLE=0.00
		SCAN_DIAGONAL=NOT_DIAGONAL
		MEAS_PRESET=TIME_PRESET
		MEAS_TIME=50.400
		MEAS_UNIT=GY
		PRESSURE=995.30
		TEMPERATURE=19.10
		NORM_TEMPERATURE=20.00
		CORRECTION_FACTOR=1.1270
		CALIBRATION_FILE=C:\Users\Public\Documents\PTW\Common Files\Calibration Files\230554201_OCTAVIUS1600XDR_191760.cal
		CORRECTIONS=AIR_DENSITY_CORR;FACTOR_CORR;
		BEGIN_DATA
			-75.00		145.92E-06		#1512
			-70.00		100.71E-06		#1481
			-65.00		120.31E-06		#1450
			-60.00		229.10E-06		#1419
			-55.00		506.06E-06		#1388
			-50.00		645.19E-06		#1357
			-45.00		3.1465E-03		#1326
			-40.00		31.904E-03		#1295
			-35.00		99.375E-03		#1264
			-32.50		116.83E-03		#1241
			-30.00		121.47E-03		#1205
			-27.50		121.74E-03		#1169
			-25.00		122.42E-03		#1133
			-22.50		122.81E-03		#1097
			-20.00		123.52E-03		#1061
			-17.50		124.51E-03		#1025
			-15.00		124.00E-03		#989
			-12.50		123.30E-03		#953
			-10.00		122.51E-03		#917
			-7.50		123.36E-03		#881
			-5.00		122.93E-03		#845
			-2.50		123.27E-03		#809
			0.00		123.00E-03		#773
			2.50		123.88E-03		#737
			5.00		122.60E-03		#701
			7.50		124.68E-03		#665
			10.00		123.24E-03		#629
			12.50		124.06E-03		#593
			15.00		123.59E-03		#557
			17.50		124.46E-03		#521
			20.00		124.30E-03		#485
			22.50		123.97E-03		#449
			25.00		123.15E-03		#413
			27.50		121.20E-03		#377
			30.00		111.49E-03		#341
			32.50		89.413E-03		#305
			35.00		54.448E-03		#270
			40.00		8.1097E-03		#239
			45.00		890.85E-06		#208
			50.00		656.38E-06		#177
			55.00		353.62E-06		#146
			60.00		58.903E-06		#115
			65.00		-184.14E-06		#84
			70.00		294.04E-06		#53
			75.00		-352.77E-06		#22
		END_DATA
	END_SCAN  11
	BEGIN_SCAN  12
		TASK_NAME=DOSE
		GROUP_NAME=LR_50.4
		PROGRAM=BeamAdjust 2.3.0.25
		COMMENT=G000, E221_c-dhex3.6_4
		MEAS_DATE=08-Jun-2024 21:49:42
		LINAC=HIT
		MODALITY=P
		INPLANE_AXIS_DIR=TARGET_GUN
		CROSSPLANE_AXIS_DIR=LEFT_RIGHT
		DEPTH_AXIS_DIR=UP_DOWN
		ENERGY=0.00
		SSD=0.00
		FIELD_INPLANE=50.00
		FIELD_CROSSPLANE=50.00
		FIELD_TYPE=RECTANGULAR
		GANTRY=0.00
		GANTRY_UPRIGHT_POSITION=0
		GANTRY_ROTATION=CW
		COLL_ANGLE=90.00
		SCAN_DEVICE=OCTAVIUS_1600_XDR
		ELECTROMETER=DETECTOR_INTERFACE
		ELECTROMETER_SN=5987
		DETECTOR=OCTAVIUS_1600_XDR
		DETECTOR_SN=191760
		FILTER=FF
		SCAN_CURVETYPE=CROSSPLANE_PROFILE
		SCAN_DEPTH=0.00
		SCAN_OFFAXIS_INPLANE=-27.50
		SCAN_ANGLE=0.00
		SCAN_DIAGONAL=NOT_DIAGONAL
		MEAS_PRESET=TIME_PRESET
		MEAS_TIME=50.400
		MEAS_UNIT=GY
		PRESSURE=995.30
		TEMPERATURE=19.10
		NORM_TEMPERATURE=20.00
		CORRECTION_FACTOR=1.1270
		CALIBRATION_FILE=C:\Users\Public\Documents\PTW\Common Files\Calibration Files\230554201_OCTAVIUS1600XDR_191760.cal
		CORRECTIONS=AIR_DENSITY_CORR;FACTOR_CORR;
		BEGIN_DATA
			-32.50		117.85E-03		#1240
			-30.00		124.00E-03		#1204
			-27.50		124.67E-03		#1168
			-25.00		125.00E-03		#1132
			-22.50		125.35E-03		#1096
			-20.00		125.85E-03		#1060
			-17.50		125.35E-03		#1024
			-15.00		127.03E-03		#988
			-12.50		125.25E-03		#952
			-10.00		126.20E-03		#916
			-7.50		125.52E-03		#880
			-5.00		125.42E-03		#844
			-2.50		125.95E-03		#808
			0.00		126.17E-03		#772
			2.50		126.33E-03		#736
			5.00		125.84E-03		#700
			7.50		127.38E-03		#664
			10.00		126.44E-03		#628
			12.50		126.08E-03		#592
			15.00		125.52E-03		#556
			17.50		126.45E-03		#520
			20.00		126.44E-03		#484
			22.50		125.45E-03		#448
			25.00		125.46E-03		#412
			27.50		122.54E-03		#376
			30.00		113.34E-03		#340
			32.50		90.237E-03		#304
		END_DATA
	END_SCAN  12
	BEGIN_SCAN  13
		TASK_NAME=DOSE
		GROUP_NAME=LR_50.4
		PROGRAM=BeamAdjust 2.3.0.25
		COMMENT=G000, E221_c-dhex3.6_4
		MEAS_DATE=08-Jun-2024 21:49:42
		LINAC=HIT
		MODALITY=P
		INPLANE_AXIS_DIR=TARGET_GUN
		CROSSPLANE_AXIS_DIR=LEFT_RIGHT
		DEPTH_AXIS_DIR=UP_DOWN
		ENERGY=0.00
		SSD=0.00
		FIELD_INPLANE=50.00
		FIELD_CROSSPLANE=50.00
		FIELD_TYPE=RECTANGULAR
		GANTRY=0.00
		GANTRY_UPRIGHT_POSITION=0
		GANTRY_ROTATION=CW
		COLL_ANGLE=90.00
		SCAN_DEVICE=OCTAVIUS_1600_XDR
		ELECTROMETER=DETECTOR_INTERFACE
		ELECTROMETER_SN=5987
		DETECTOR=OCTAVIUS_1600_XDR
		DETECTOR_SN=191760
		FILTER=FF
		SCAN_CURVETYPE=CROSSPLANE_PROFILE
		SCAN_DEPTH=0.00
		SCAN_OFFAXIS_INPLANE=-25.00
		SCAN_ANGLE=0.00
		SCAN_DIAGONAL=NOT_DIAGONAL
		MEAS_PRESET=TIME_PRESET
		MEAS_TIME=50.400
		MEAS_UNIT=GY
		PRESSURE=995.30
		TEMPERATURE=19.10
		NORM_TEMPERATURE=20.00
		CORRECTION_FACTOR=1.1270
		CALIBRATION_FILE=C:\Users\Public\Documents\PTW\Common Files\Calibration Files\230554201_OCTAVIUS1600XDR_191760.cal
		CORRECTIONS=AIR_DENSITY_CORR;FACTOR_CORR;
		BEGIN_DATA
			-75.00		68.431E-06		#1511
			-70.00		219.76E-06		#1480
			-65.00		462.78E-06		#1449
			-60.00		435.78E-06		#1418
			-55.00		195.68E-06		#1387
			-50.00		1.1687E-03		#1356
			-45.00		3.7353E-03		#1325
			-40.00		33.008E-03		#1294
			-35.00		102.13E-03		#1263
			-32.50		119.94E-03		#1239
			-30.00		125.36E-03		#1203
			-27.50		125.86E-03		#1167
			-25.00		126.14E-03		#1131
			-22.50		125.92E-03		#1095
			-20.00		126.68E-03		#1059
			-17.50		128.49E-03		#1023
			-15.00		126.98E-03		#987
			-12.50		127.95E-03		#951
			-10.00		126.84E-03		#915
			-7.50		126.87E-03		#879
			-5.00		127.53E-03		#843
			-2.50		127.08E-03		#807
			0.00		126.47E-03		#771
			2.50		127.46E-03		#735
			5.00		126.57E-03		#699
			7.50		127.63E-03		#663
			10.00		127.30E-03		#627
			12.50		126.65E-03		#591
			15.00		127.26E-03		#555
			17.50		127.51E-03		#519
			20.00		127.96E-03		#483
			22.50		126.99E-03		#447
			25.00		126.22E-03		#411
			27.50		123.00E-03		#375
			30.00		114.54E-03		#339
			32.50		91.034E-03		#303
			35.00		55.757E-03		#269
			40.00		7.7792E-03		#238
			45.00		1.7066E-03		#207
			50.00		510.07E-06		#176
			55.00		467.81E-06		#145
			60.00		238.57E-06		#114
			65.00		457.36E-06		#83
			70.00		-13.502E-06		#52
			75.00		64.438E-06		#21
		END_DATA
	END_SCAN  13
	BEGIN_SCAN  14
		TASK_NAME=DOSE
		GROUP_NAME=LR_50.4
		PROGRAM=BeamAdjust 2.3.0.25
		COMMENT=G000, E221_c-dhex3.6_4
		MEAS_DATE=08-Jun-2024 21:49:42
		LINAC=HIT
		MODALITY=P
		INPLANE_AXIS_DIR=TARGET_GUN
		CROSSPLANE_AXIS_DIR=LEFT_RIGHT
		DEPTH_AXIS_DIR=UP_DOWN
		ENERGY=0.00
		SSD=0.00
		FIELD_INPLANE=50.00
		FIELD_CROSSPLANE=50.00
		FIELD_TYPE=RECTANGULAR
		GANTRY=0.00
		GANTRY_UPRIGHT_POSITION=0
		GANTRY_ROTATION=CW
		COLL_ANGLE=90.00
		SCAN_DEVICE=OCTAVIUS_1600_XDR
		ELECTROMETER=DETECTOR_INTERFACE
		ELECTROMETER_SN=5987
		DETECTOR=OCTAVIUS_1600_XDR
		DETECTOR_SN=191760
		FILTER=FF
		SCAN_CURVETYPE=CROSSPLANE_PROFILE
		SCAN_DEPTH=0.00
		SCAN_OFFAXIS_INPLANE=-22.50
		SCAN_ANGLE=0.00
		SCAN_DIAGONAL=NOT_DIAGONAL
		MEAS_PRESET=TIME_PRESET
		MEAS_TIME=50.400
		MEAS_UNIT=GY
		PRESSURE=995.30
		TEMPERATURE=19.10
		NORM_TEMPERATURE=20.00
		CORRECTION_FACTOR=1.1270
		CALIBRATION_FILE=C:\Users\Public\Documents\PTW\Common Files\Calibration Files\230554201_OCTAVIUS1600XDR_191760.cal
		CORRECTIONS=AIR_DENSITY_CORR;FACTOR_CORR;
		BEGIN_DATA
			-32.50		118.79E-03		#1238
			-30.00		124.96E-03		#1202
			-27.50		125.78E-03		#1166
			-25.00		126.14E-03		#1130
			-22.50		125.74E-03		#1094
			-20.00		127.61E-03		#1058
			-17.50		127.13E-03		#1022
			-15.00		126.83E-03		#986
			-12.50		126.88E-03		#950
			-10.00		127.39E-03		#914
			-7.50		126.41E-03		#878
			-5.00		126.37E-03		#842
			-2.50		126.73E-03		#806
			0.00		127.23E-03		#770
			2.50		127.45E-03		#734
			5.00		126.86E-03		#698
			7.50		127.33E-03		#662
			10.00		126.72E-03		#626
			12.50		127.03E-03		#590
			15.00		127.43E-03		#554
			17.50		126.67E-03		#518
			20.00		127.17E-03		#482
			22.50		126.40E-03		#446
			25.00		126.26E-03		#410
			27.50		123.94E-03		#374
			30.00		114.42E-03		#338
			32.50		91.174E-03		#302
		END_DATA
	END_SCAN  14
	BEGIN_SCAN  15
		TASK_NAME=DOSE
		GROUP_NAME=LR_50.4
		PROGRAM=BeamAdjust 2.3.0.25
		COMMENT=G000, E221_c-dhex3.6_4
		MEAS_DATE=08-Jun-2024 21:49:42
		LINAC=HIT
		MODALITY=P
		INPLANE_AXIS_DIR=TARGET_GUN
		CROSSPLANE_AXIS_DIR=LEFT_RIGHT
		DEPTH_AXIS_DIR=UP_DOWN
		ENERGY=0.00
		SSD=0.00
		FIELD_INPLANE=50.00
		FIELD_CROSSPLANE=50.00
		FIELD_TYPE=RECTANGULAR
		GANTRY=0.00
		GANTRY_UPRIGHT_POSITION=0
		GANTRY_ROTATION=CW
		COLL_ANGLE=90.00
		SCAN_DEVICE=OCTAVIUS_1600_XDR
		ELECTROMETER=DETECTOR_INTERFACE
		ELECTROMETER_SN=5987
		DETECTOR=OCTAVIUS_1600_XDR
		DETECTOR_SN=191760
		FILTER=FF
		SCAN_CURVETYPE=CROSSPLANE_PROFILE
		SCAN_DEPTH=0.00
		SCAN_OFFAXIS_INPLANE=-20.00
		SCAN_ANGLE=0.00
		SCAN_DIAGONAL=NOT_DIAGONAL
		MEAS_PRESET=TIME_PRESET
		MEAS_TIME=50.400
		MEAS_UNIT=GY
		PRESSURE=995.30
		TEMPERATURE=19.10
		NORM_TEMPERATURE=20.00
		CORRECTION_FACTOR=1.1270
		CALIBRATION_FILE=C:\Users\Public\Documents\PTW\Common Files\Calibration Files\230554201_OCTAVIUS1600XDR_191760.cal
		CORRECTIONS=AIR_DENSITY_CORR;FACTOR_CORR;
		BEGIN_DATA
			-75.00		495.17E-06		#1510
			-70.00		354.08E-06		#1479
			-65.00		416.45E-06		#1448
			-60.00		193.28E-06		#1417
			-55.00		336.34E-06		#1386
			-50.00		255.91E-06		#1355
			-45.00		3.8460E-03		#1324
			-40.00		32.851E-03		#1293
			-35.00		101.63E-03		#1262
			-32.50		118.33E-03		#1237
			-30.00		124.24E-03		#1201
			-27.50		125.22E-03		#1165
			-25.00		125.91E-03		#1129
			-22.50		125.83E-03		#1093
			-20.00		125.69E-03		#1057
			-17.50		127.24E-03		#1021
			-15.00		127.89E-03		#985
			-12.50		127.62E-03		#949
			-10.00		126.55E-03		#913
			-7.50		127.19E-03		#877
			-5.00		126.18E-03		#841
			-2.50		126.58E-03		#805
			0.00		126.35E-03		#769
			2.50		126.25E-03		#733
			5.00		126.58E-03		#697
			7.50		127.34E-03		#661
			10.00		127.52E-03		#625
			12.50		127.10E-03		#589
			15.00		127.15E-03		#553
			17.50		127.38E-03		#517
			20.00		127.78E-03		#481
			22.50		127.12E-03		#445
			25.00		126.45E-03		#409
			27.50		123.16E-03		#373
			30.00		114.21E-03		#337
			32.50		91.738E-03		#301
			35.00		55.975E-03		#268
			40.00		8.1021E-03		#237
			45.00		1.5012E-03		#206
			50.00		574.72E-06		#175
			55.00		620.14E-06		#144
			60.00		492.80E-06		#113
			65.00		274.83E-06		#82
			70.00		-107.88E-06		#51
			75.00		-50.229E-06		#20
		END_DATA
	END_SCAN  15
	BEGIN_SCAN  16
		TASK_NAME=DOSE
		GROUP_NAME=LR_50.4
