BEGIN_SCAN_DATA
	FORMAT=CC-Export V1.9                  
	FILE_CREATION_DATE=08-Jun-2024 21:48:14
	LAST_MODIFIED=08-Jun-2024 21:48:14
	BEGIN_SCAN  1
		TASK_NAME=DOSE
		GROUP_NAME=LR_20.8
		PROGRAM=BeamAdjust 2.3.0.25
		COMMENT=G000, E221_c-dhex3.6_4
		MEAS_DATE=08-Jun-2024 21:48:05
		LINAC=HIT
		MODALITY=P
		INPLANE_AXIS_DIR=TARGET_GUN
		CROSSPLANE_AXIS_DIR=LEFT_RIGHT
		DEPTH_AXIS_DIR=UP_DOWN
		ENERGY=0.00
		SSD=0.00
		FIELD_INPLANE=50.00
		FIELD_CROSSPLANE=50.00
		FIELD_TYPE=RECTANGULAR
		GANTRY=0.00
		GANTRY_UPRIGHT_POSITION=0
		GANTRY_ROTATION=CW
		COLL_ANGLE=90.00
		SCAN_DEVICE=OCTAVIUS_1600_XDR
		ELECTROMETER=DETECTOR_INTERFACE
		ELECTROMETER_SN=5987
		DETECTOR=OCTAVIUS_1600_XDR
		DETECTOR_SN=191760
		FILTER=FF
		SCAN_CURVETYPE=CROSSPLANE_PROFILE
		SCAN_DEPTH=0.00
		SCAN_OFFAXIS_INPLANE=-75.00
		SCAN_ANGLE=0.00
		SCAN_DIAGONAL=NOT_DIAGONAL
		MEAS_PRESET=TIME_PRESET
		MEAS_TIME=20.800
		MEAS_UNIT=GY
		PRESSURE=995.30
		TEMPERATURE=19.10
		NORM_TEMPERATURE=20.00
		CORRECTION_FACTOR=1.1270
		CALIBRATION_FILE=C:\Users\Public\Documents\PTW\Common Files\Calibration Files\230554201_OCTAVIUS1600XDR_191760.cal
		CORRECTIONS=AIR_DENSITY_CORR;FACTOR_CORR;
		BEGIN_DATA
			-75.00		82.864E-06		#1521
			-70.00		-29.040E-06		#1490
			-65.00		22.153E-06		#1459
			-60.00		-32.269E-06		#1428
			-55.00		-28.234E-06		#1397
			-50.00		25.162E-06		#1366
			-45.00		7.3646E-06		#1335
			-40.00		41.924E-06		#1304
			-35.00		24.555E-06		#1273
			-30.00		19.553E-06		#1215
			-25.00		129.05E-06		#1143
			-20.00		-6.2785E-06		#1071
			-15.00		135.22E-06		#999
			-10.00		97.402E-06		#927
			-5.00		206.57E-06		#855
			0.00		64.537E-06		#783
			5.00		101.72E-06		#711
			10.00		-70.729E-06		#639
			15.00		2.1714E-06		#567
			20.00		-40.648E-06		#495
			25.00		185.27E-06		#423
			30.00		-198.47E-06		#351
			35.00		317.01E-06		#279
			40.00		270.41E-06		#248
			45.00		95.565E-06		#217
			50.00		-222.25E-06		#186
			55.00		95.461E-06		#155
			60.00		-210.57E-06		#124
			65.00		6.9231E-06		#93
			70.00		115.09E-06		#62
			75.00		-103.77E-06		#31
		END_DATA
	END_SCAN  1
	BEGIN_SCAN  2
		TASK_NAME=DOSE
		GROUP_NAME=LR_20.8
		PROGRAM=BeamAdjust 2.3.0.25
		COMMENT=G000, E221_c-dhex3.6_4
		MEAS_DATE=08-Jun-2024 21:48:05
		LINAC=HIT
		MODALITY=P
		INPLANE_AXIS_DIR=TARGET_GUN
		CROSSPLANE_AXIS_DIR=LEFT_RIGHT
		DEPTH_AXIS_DIR=UP_DOWN
		ENERGY=0.00
		SSD=0.00
		FIELD_INPLANE=50.00
		FIELD_CROSSPLANE=50.00
		FIELD_TYPE=RECTANGULAR
		GANTRY=0.00
		GANTRY_UPRIGHT_POSITION=0
		GANTRY_ROTATION=CW
		COLL_ANGLE=90.00
		SCAN_DEVICE=OCTAVIUS_1600_XDR
		ELECTROMETER=DETECTOR_INTERFACE
		ELECTROMETER_SN=5987
		DETECTOR=OCTAVIUS_1600_XDR
		DETECTOR_SN=191760
		FILTER=FF
		SCAN_CURVETYPE=CROSSPLANE_PROFILE
		SCAN_DEPTH=0.00
		SCAN_OFFAXIS_INPLANE=-70.00
		SCAN_ANGLE=0.00
		SCAN_DIAGONAL=NOT_DIAGONAL
		MEAS_PRESET=TIME_PRESET
		MEAS_TIME=20.800
		MEAS_UNIT=GY
		PRESSURE=995.30
		TEMPERATURE=19.10
		NORM_TEMPERATURE=20.00
		CORRECTION_FACTOR=1.1270
		CALIBRATION_FILE=C:\Users\Public\Documents\PTW\Common Files\Calibration Files\230554201_OCTAVIUS1600XDR_191760.cal
		CORRECTIONS=AIR_DENSITY_CORR;FACTOR_CORR;
		BEGIN_DATA
			-75.00		-19.444E-06		#1520
			-70.00		55.702E-06		#1489
			-65.00		-4.9263E-06		#1458
			-60.00		-80.890E-06		#1427
			-55.00		-99.843E-06		#1396
			-50.00		-45.932E-06		#1365
			-45.00		192.48E-06		#1334
			-40.00		27.630E-06		#1303
			-35.00		237.61E-06		#1272
			-30.00		107.52E-06		#1214
			-25.00		-17.455E-06		#1142
			-20.00		2.1793E-06		#1070
			-15.00		94.042E-06		#998
			-10.00		28.289E-06		#926
			-5.00		251.14E-06		#854
			0.00		138.72E-06		#782
			5.00		-4.7588E-06		#710
			10.00		-17.645E-06		#638
			15.00		17.223E-06		#566
			20.00		-206.67E-06		#494
			25.00		305.38E-06		#422
			30.00		139.20E-06		#350
			35.00		80.015E-06		#278
			40.00		88.378E-06		#247
			45.00		12.694E-06		#216
			50.00		87.770E-06		#185
			55.00		-46.746E-06		#154
			60.00		214.78E-06		#123
			65.00		-172.31E-06		#92
			70.00		-28.173E-06		#61
			75.00		93.718E-06		#30
		END_DATA
	END_SCAN  2
	BEGIN_SCAN  3
		TASK_NAME=DOSE
		GROUP_NAME=LR_20.8
		PROGRAM=BeamAdjust 2.3.0.25
		COMMENT=G000, E221_c-dhex3.6_4
		MEAS_DATE=08-Jun-2024 21:48:05
		LINAC=HIT
		MODALITY=P
		INPLANE_AXIS_DIR=TARGET_GUN
		CROSSPLANE_AXIS_DIR=LEFT_RIGHT
		DEPTH_AXIS_DIR=UP_DOWN
		ENERGY=0.00
		SSD=0.00
		FIELD_INPLANE=50.00
		FIELD_CROSSPLANE=50.00
		FIELD_TYPE=RECTANGULAR
		GANTRY=0.00
		GANTRY_UPRIGHT_POSITION=0
		GANTRY_ROTATION=CW
		COLL_ANGLE=90.00
		SCAN_DEVICE=OCTAVIUS_1600_XDR
		ELECTROMETER=DETECTOR_INTERFACE
		ELECTROMETER_SN=5987
		DETECTOR=OCTAVIUS_1600_XDR
		DETECTOR_SN=191760
		FILTER=FF
		SCAN_CURVETYPE=CROSSPLANE_PROFILE
		SCAN_DEPTH=0.00
		SCAN_OFFAXIS_INPLANE=-65.00
		SCAN_ANGLE=0.00
		SCAN_DIAGONAL=NOT_DIAGONAL
		MEAS_PRESET=TIME_PRESET
		MEAS_TIME=20.800
		MEAS_UNIT=GY
		PRESSURE=995.30
		TEMPERATURE=19.10
		NORM_TEMPERATURE=20.00
		CORRECTION_FACTOR=1.1270
		CALIBRATION_FILE=C:\Users\Public\Documents\PTW\Common Files\Calibration Files\230554201_OCTAVIUS1600XDR_191760.cal
		CORRECTIONS=AIR_DENSITY_CORR;FACTOR_CORR;
		BEGIN_DATA
			-75.00		-18.719E-06		#1519
			-70.00		-20.695E-06		#1488
			-65.00		255.11E-06		#1457
			-60.00		126.85E-06		#1426
			-55.00		25.536E-06		#1395
			-50.00		114.40E-06		#1364
			-45.00		41.148E-06		#1333
			-40.00		-13.467E-06		#1302
			-35.00		89.046E-06		#1271
			-30.00		45.659E-06		#1213
			-25.00		-1.9726E-06		#1141
			-20.00		-32.284E-06		#1069
			-15.00		64.156E-06		#997
			-10.00		127.73E-06		#925
			-5.00		112.61E-06		#853
			0.00		74.698E-06		#781
			5.00		-66.976E-06		#709
			10.00		166.93E-06		#637
			15.00		17.593E-06		#565
			20.00		-85.974E-06		#493
			25.00		32.997E-06		#421
			30.00		85.758E-06		#349
			35.00		167.09E-06		#277
			40.00		-18.902E-06		#246
			45.00		238.55E-06		#215
			50.00		104.66E-06		#184
			55.00		-22.801E-06		#153
			60.00		44.556E-06		#122
			65.00		40.118E-06		#91
			70.00		17.530E-06		#60
			75.00		12.853E-06		#29
		END_DATA
	END_SCAN  3
	BEGIN_SCAN  4
		TASK_NAME=DOSE
		GROUP_NAME=LR_20.8
		PROGRAM=BeamAdjust 2.3.0.25
		COMMENT=G000, E221_c-dhex3.6_4
		MEAS_DATE=08-Jun-2024 21:48:05
		LINAC=HIT
		MODALITY=P
		INPLANE_AXIS_DIR=TARGET_GUN
		CROSSPLANE_AXIS_DIR=LEFT_RIGHT
		DEPTH_AXIS_DIR=UP_DOWN
		ENERGY=0.00
		SSD=0.00
		FIELD_INPLANE=50.00
		FIELD_CROSSPLANE=50.00
		FIELD_TYPE=RECTANGULAR
		GANTRY=0.00
		GANTRY_UPRIGHT_POSITION=0
		GANTRY_ROTATION=CW
		COLL_ANGLE=90.00
		SCAN_DEVICE=OCTAVIUS_1600_XDR
		ELECTROMETER=DETECTOR_INTERFACE
		ELECTROMETER_SN=5987
		DETECTOR=OCTAVIUS_1600_XDR
		DETECTOR_SN=191760
		FILTER=FF
		SCAN_CURVETYPE=CROSSPLANE_PROFILE
		SCAN_DEPTH=0.00
		SCAN_OFFAXIS_INPLANE=-60.00
		SCAN_ANGLE=0.00
		SCAN_DIAGONAL=NOT_DIAGONAL
		MEAS_PRESET=TIME_PRESET
		MEAS_TIME=20.800
		MEAS_UNIT=GY
		PRESSURE=995.30
		TEMPERATURE=19.10
		NORM_TEMPERATURE=20.00
		CORRECTION_FACTOR=1.1270
		CALIBRATION_FILE=C:\Users\Public\Documents\PTW\Common Files\Calibration Files\230554201_OCTAVIUS1600XDR_191760.cal
		CORRECTIONS=AIR_DENSITY_CORR;FACTOR_CORR;
		BEGIN_DATA
			-75.00		101.04E-06		#1518
			-70.00		123.65E-06		#1487
			-65.00		26.843E-06		#1456
			-60.00		679.93E-09		#1425
			-55.00		140.51E-06		#1394
			-50.00		112.70E-06		#1363
			-45.00		142.04E-06		#1332
			-40.00		135.48E-06		#1301
			-35.00		82.613E-06		#1270
			-30.00		-131.68E-06		#1212
			-25.00		104.33E-06		#1140
			-20.00		157.87E-06		#1068
			-15.00		3.0700E-06		#996
			-10.00		215.38E-06		#924
			-5.00		138.12E-06		#852
			0.00		69.329E-06		#780
			5.00		140.11E-06		#708
			10.00		171.40E-06		#636
			15.00		238.69E-06		#564
			20.00		-45.122E-06		#492
			25.00		-79.084E-06		#420
			30.00		118.11E-06		#348
			35.00		-120.33E-06		#276
			40.00		250.62E-06		#245
			45.00		17.286E-06		#214
			50.00		53.310E-06		#183
			55.00		120.21E-06		#152
			60.00		45.967E-06		#121
			65.00		119.72E-06		#90
			70.00		33.794E-06		#59
			75.00		189.03E-06		#28
		END_DATA
	END_SCAN  4
	BEGIN_SCAN  5
		TASK_NAME=DOSE
		GROUP_NAME=LR_20.8
		PROGRAM=BeamAdjust 2.3.0.25
		COMMENT=G000, E221_c-dhex3.6_4
		MEAS_DATE=08-Jun-2024 21:48:05
		LINAC=HIT
		MODALITY=P
		INPLANE_AXIS_DIR=TARGET_GUN
		CROSSPLANE_AXIS_DIR=LEFT_RIGHT
		DEPTH_AXIS_DIR=UP_DOWN
		ENERGY=0.00
		SSD=0.00
		FIELD_INPLANE=50.00
		FIELD_CROSSPLANE=50.00
		FIELD_TYPE=RECTANGULAR
		GANTRY=0.00
		GANTRY_UPRIGHT_POSITION=0
		GANTRY_ROTATION=CW
		COLL_ANGLE=90.00
		SCAN_DEVICE=OCTAVIUS_1600_XDR
		ELECTROMETER=DETECTOR_INTERFACE
		ELECTROMETER_SN=5987
		DETECTOR=OCTAVIUS_1600_XDR
		DETECTOR_SN=191760
		FILTER=FF
		SCAN_CURVETYPE=CROSSPLANE_PROFILE
		SCAN_DEPTH=0.00
		SCAN_OFFAXIS_INPLANE=-55.00
		SCAN_ANGLE=0.00
		SCAN_DIAGONAL=NOT_DIAGONAL
		MEAS_PRESET=TIME_PRESET
		MEAS_TIME=20.800
		MEAS_UNIT=GY
		PRESSURE=995.30
		TEMPERATURE=19.10
		NORM_TEMPERATURE=20.00
		CORRECTION_FACTOR=1.1270
		CALIBRATION_FILE=C:\Users\Public\Documents\PTW\Common Files\Calibration Files\230554201_OCTAVIUS1600XDR_191760.cal
		CORRECTIONS=AIR_DENSITY_CORR;FACTOR_CORR;
		BEGIN_DATA
			-75.00		14.299E-06		#1517
			-70.00		37.291E-06		#1486
			-65.00		50.492E-06		#1455
			-60.00		-18.932E-06		#1424
			-55.00		64.608E-06		#1393
			-50.00		-71.964E-06		#1362
			-45.00		129.50E-06		#1331
			-40.00		101.99E-06		#1300
			-35.00		61.351E-06		#1269
			-30.00		78.313E-06		#1211
			-25.00		160.83E-06		#1139
			-20.00		96.866E-06		#1067
			-15.00		10.690E-06		#995
			-10.00		-45.989E-06		#923
			-5.00		55.536E-06		#851
			0.00		12.472E-06		#779
			5.00		71.433E-06		#707
			10.00		258.62E-06		#635
			15.00		-45.165E-06		#563
			20.00		220.28E-06		#491
			25.00		40.610E-06		#419
			30.00		-76.236E-06		#347
			35.00		45.793E-06		#275
			40.00		-124.63E-06		#244
			45.00		213.09E-06		#213
			50.00		148.47E-06		#182
			55.00		60.468E-06		#151
			60.00		-113.96E-06		#120
			65.00		49.784E-06		#89
			70.00		42.708E-06		#58
			75.00		-165.49E-06		#27
		END_DATA
	END_SCAN  5
	BEGIN_SCAN  6
		TASK_NAME=DOSE
		GROUP_NAME=LR_20.8
		PROGRAM=BeamAdjust 2.3.0.25
		COMMENT=G000, E221_c-dhex3.6_4
		MEAS_DATE=08-Jun-2024 21:48:05
		LINAC=HIT
		MODALITY=P
		INPLANE_AXIS_DIR=TARGET_GUN
		CROSSPLANE_AXIS_DIR=LEFT_RIGHT
		DEPTH_AXIS_DIR=UP_DOWN
		ENERGY=0.00
		SSD=0.00
		FIELD_INPLANE=50.00
		FIELD_CROSSPLANE=50.00
		FIELD_TYPE=RECTANGULAR
		GANTRY=0.00
		GANTRY_UPRIGHT_POSITION=0
		GANTRY_ROTATION=CW
		COLL_ANGLE=90.00
		SCAN_DEVICE=OCTAVIUS_1600_XDR
		ELECTROMETER=DETECTOR_INTERFACE
		ELECTROMETER_SN=5987
		DETECTOR=OCTAVIUS_1600_XDR
		DETECTOR_SN=191760
		FILTER=FF
		SCAN_CURVETYPE=CROSSPLANE_PROFILE
		SCAN_DEPTH=0.00
		SCAN_OFFAXIS_INPLANE=-50.00
		SCAN_ANGLE=0.00
		SCAN_DIAGONAL=NOT_DIAGONAL
		MEAS_PRESET=TIME_PRESET
		MEAS_TIME=20.800
		MEAS_UNIT=GY
		PRESSURE=995.30
		TEMPERATURE=19.10
		NORM_TEMPERATURE=20.00
		CORRECTION_FACTOR=1.1270
		CALIBRATION_FILE=C:\Users\Public\Documents\PTW\Common Files\Calibration Files\230554201_OCTAVIUS1600XDR_191760.cal
		CORRECTIONS=AIR_DENSITY_CORR;FACTOR_CORR;
		BEGIN_DATA
			-75.00		94.730E-06		#1516
			-70.00		-127.00E-06		#1485
			-65.00		-111.90E-06		#1454
			-60.00		8.5868E-06		#1423
			-55.00		-40.339E-06		#1392
			-50.00		-36.255E-06		#1361
			-45.00		14.766E-06		#1330
			-40.00		108.56E-06		#1299
			-35.00		88.794E-06		#1268
			-30.00		155.51E-06		#1210
			-25.00		-16.696E-06		#1138
			-20.00		159.82E-06		#1066
			-15.00		170.41E-06		#994
			-10.00		72.861E-06		#922
			-5.00		204.01E-06		#850
			0.00		174.76E-06		#778
			5.00		176.80E-06		#706
			10.00		240.78E-06		#634
			15.00		-13.535E-06		#562
			20.00		204.27E-06		#490
			25.00		62.179E-06		#418
			30.00		40.124E-06		#346
			35.00		24.568E-06		#274
			40.00		71.611E-06		#243
			45.00		-106.30E-06		#212
			50.00		-244.25E-06		#181
			55.00		28.687E-06		#150
			60.00		69.857E-06		#119
			65.00		32.699E-06		#88
			70.00		115.30E-06		#57
			75.00		-37.950E-06		#26
		END_DATA
	END_SCAN  6
	BEGIN_SCAN  7
		TASK_NAME=DOSE
		GROUP_NAME=LR_20.8
		PROGRAM=BeamAdjust 2.3.0.25
		COMMENT=G000, E221_c-dhex3.6_4
		MEAS_DATE=08-Jun-2024 21:48:05
		LINAC=HIT
		MODALITY=P
		INPLANE_AXIS_DIR=TARGET_GUN
		CROSSPLANE_AXIS_DIR=LEFT_RIGHT
		DEPTH_AXIS_DIR=UP_DOWN
		ENERGY=0.00
		SSD=0.00
		FIELD_INPLANE=50.00
		FIELD_CROSSPLANE=50.00
		FIELD_TYPE=RECTANGULAR
		GANTRY=0.00
		GANTRY_UPRIGHT_POSITION=0
		GANTRY_ROTATION=CW
		COLL_ANGLE=90.00
		SCAN_DEVICE=OCTAVIUS_1600_XDR
		ELECTROMETER=DETECTOR_INTERFACE
		ELECTROMETER_SN=5987
		DETECTOR=OCTAVIUS_1600_XDR
		DETECTOR_SN=191760
		FILTER=FF
		SCAN_CURVETYPE=CROSSPLANE_PROFILE
		SCAN_DEPTH=0.00
		SCAN_OFFAXIS_INPLANE=-45.00
		SCAN_ANGLE=0.00
		SCAN_DIAGONAL=NOT_DIAGONAL
		MEAS_PRESET=TIME_PRESET
		MEAS_TIME=20.800
		MEAS_UNIT=GY
		PRESSURE=995.30
		TEMPERATURE=19.10
		NORM_TEMPERATURE=20.00
		CORRECTION_FACTOR=1.1270
		CALIBRATION_FILE=C:\Users\Public\Documents\PTW\Common Files\Calibration Files\230554201_OCTAVIUS1600XDR_191760.cal
		CORRECTIONS=AIR_DENSITY_CORR;FACTOR_CORR;
		BEGIN_DATA
			-75.00		44.240E-06		#1515
			-70.00		-62.083E-06		#1484
			-65.00		78.659E-06		#1453
			-60.00		19.180E-06		#1422
			-55.00		89.024E-06		#1391
			-50.00		155.69E-06		#1360
			-45.00		133.29E-06		#1329
			-40.00		16.616E-06		#1298
			-35.00		-57.002E-06		#1267
			-30.00		181.65E-06		#1209
			-25.00		170.38E-06		#1137
			-20.00		208.73E-06		#1065
			-15.00		240.90E-06		#993
			-10.00		295.55E-06		#921
			-5.00		370.57E-06		#849
			0.00		391.32E-06		#777
			5.00		273.82E-06		#705
			10.00		308.13E-06		#633
			15.00		162.74E-06		#561
			20.00		232.37E-06		#489
			25.00		194.05E-06		#417
			30.00		118.22E-06		#345
			35.00		-12.664E-06		#273
			40.00		95.651E-06		#242
			45.00		231.67E-06		#211
			50.00		78.986E-06		#180
			55.00		-40.373E-06		#149
			60.00		75.311E-06		#118
			65.00		105.80E-06		#87
			70.00		92.761E-06		#56
			75.00		-126.84E-06		#25
		END_DATA
	END_SCAN  7
	BEGIN_SCAN  8
		TASK_NAME=DOSE
		GROUP_NAME=LR_20.8
		PROGRAM=BeamAdjust 2.3.0.25
		COMMENT=G000, E221_c-dhex3.6_4
		MEAS_DATE=08-Jun-2024 21:48:05
		LINAC=HIT
		MODALITY=P
		INPLANE_AXIS_DIR=TARGET_GUN
		CROSSPLANE_AXIS_DIR=LEFT_RIGHT
		DEPTH_AXIS_DIR=UP_DOWN
		ENERGY=0.00
		SSD=0.00
		FIELD_INPLANE=50.00
		FIELD_CROSSPLANE=50.00
		FIELD_TYPE=RECTANGULAR
		GANTRY=0.00
		GANTRY_UPRIGHT_POSITION=0
		GANTRY_ROTATION=CW
		COLL_ANGLE=90.00
		SCAN_DEVICE=OCTAVIUS_1600_XDR
		ELECTROMETER=DETECTOR_INTERFACE
		ELECTROMETER_SN=5987
		DETECTOR=OCTAVIUS_1600_XDR
		DETECTOR_SN=191760
		FILTER=FF
		SCAN_CURVETYPE=CROSSPLANE_PROFILE
		SCAN_DEPTH=0.00
		SCAN_OFFAXIS_INPLANE=-40.00
		SCAN_ANGLE=0.00
		SCAN_DIAGONAL=NOT_DIAGONAL
		MEAS_PRESET=TIME_PRESET
		MEAS_TIME=20.800
		MEAS_UNIT=GY
		PRESSURE=995.30
		TEMPERATURE=19.10
		NORM_TEMPERATURE=20.00
		CORRECTION_FACTOR=1.1270
		CALIBRATION_FILE=C:\Users\Public\Documents\PTW\Common Files\Calibration Files\230554201_OCTAVIUS1600XDR_191760.cal
		CORRECTIONS=AIR_DENSITY_CORR;FACTOR_CORR;
		BEGIN_DATA
			-75.00		-17.415E-06		#1514
			-70.00		103.13E-06		#1483
			-65.00		79.025E-06		#1452
			-60.00		-148.22E-06		#1421
			-55.00		198.24E-06		#1390
			-50.00		116.42E-06		#1359
			-45.00		41.946E-06		#1328
			-40.00		-12.196E-06		#1297
			-35.00		303.18E-06		#1266
			-30.00		334.48E-06		#1208
			-25.00		410.40E-06		#1136
			-20.00		536.97E-06		#1064
			-15.00		594.98E-06		#992
			-10.00		545.46E-06		#920
			-5.00		670.88E-06		#848
			0.00		581.02E-06		#776
			5.00		863.37E-06		#704
			10.00		746.48E-06		#632
			15.00		460.14E-06		#560
			20.00		516.86E-06		#488
			25.00		263.83E-06		#416
			30.00		343.86E-06		#344
			35.00		160.07E-06		#272
			40.00		-57.868E-06		#241
			45.00		57.678E-06		#210
			50.00		-71.483E-06		#179
			55.00		116.88E-06		#148
			60.00		-5.0259E-06		#117
			65.00		82.948E-06		#86
			70.00		61.062E-06		#55
			75.00		121.30E-06		#24
		END_DATA
	END_SCAN  8
	BEGIN_SCAN  9
		TASK_NAME=DOSE
		GROUP_NAME=LR_20.8
		PROGRAM=BeamAdjust 2.3.0.25
		COMMENT=G000, E221_c-dhex3.6_4
		MEAS_DATE=08-Jun-2024 21:48:05
		LINAC=HIT
		MODALITY=P
		INPLANE_AXIS_DIR=TARGET_GUN
		CROSSPLANE_AXIS_DIR=LEFT_RIGHT
		DEPTH_AXIS_DIR=UP_DOWN
		ENERGY=0.00
		SSD=0.00
		FIELD_INPLANE=50.00
		FIELD_CROSSPLANE=50.00
		FIELD_TYPE=RECTANGULAR
		GANTRY=0.00
		GANTRY_UPRIGHT_POSITION=0
		GANTRY_ROTATION=CW
		COLL_ANGLE=90.00
		SCAN_DEVICE=OCTAVIUS_1600_XDR
		ELECTROMETER=DETECTOR_INTERFACE
		ELECTROMETER_SN=5987
		DETECTOR=OCTAVIUS_1600_XDR
		DETECTOR_SN=191760
		FILTER=FF
		SCAN_CURVETYPE=CROSSPLANE_PROFILE
		SCAN_DEPTH=0.00
		SCAN_OFFAXIS_INPLANE=-35.00
		SCAN_ANGLE=0.00
		SCAN_DIAGONAL=NOT_DIAGONAL
		MEAS_PRESET=TIME_PRESET
		MEAS_TIME=20.800
		MEAS_UNIT=GY
		PRESSURE=995.30
		TEMPERATURE=19.10
		NORM_TEMPERATURE=20.00
		CORRECTION_FACTOR=1.1270
		CALIBRATION_FILE=C:\Users\Public\Documents\PTW\Common Files\Calibration Files\230554201_OCTAVIUS1600XDR_191760.cal
		CORRECTIONS=AIR_DENSITY_CORR;FACTOR_CORR;
		BEGIN_DATA
			-75.00		212.61E-06		#1513
			-70.00		-7.6505E-06		#1482
			-65.00		78.498E-06		#1451
			-60.00		116.84E-06		#1420
			-55.00		142.37E-06		#1389
			-50.00		173.74E-06		#1358
			-45.00		154.69E-06		#1327
			-40.00		183.15E-06		#1296
			-35.00		229.56E-06		#1265
			-30.00		426.18E-06		#1207
			-25.00		1.0598E-03		#1135
			-20.00		1.8972E-03		#1063
			-15.00		1.9792E-03		#991
			-10.00		2.3811E-03		#919
			-5.00		2.3295E-03		#847
			0.00		2.3494E-03		#775
			5.00		2.3687E-03		#703
			10.00		2.3320E-03		#631
			15.00		1.8660E-03		#559
			20.00		1.4486E-03		#487
			25.00		896.18E-06		#415
			30.00		469.91E-06		#343
			35.00		243.18E-06		#271
			40.00		72.390E-06		#240
			45.00		-110.15E-06		#209
			50.00		-65.207E-06		#178
			55.00		146.15E-06		#147
			60.00		104.97E-06		#116
			65.00		-99.040E-06		#85
			70.00		4.9775E-06		#54
			75.00		-136.23E-06		#23
		END_DATA
	END_SCAN  9
	BEGIN_SCAN  10
		TASK_NAME=DOSE
		GROUP_NAME=LR_20.8
		PROGRAM=BeamAdjust 2.3.0.25
		COMMENT=G000, E221_c-dhex3.6_4
		MEAS_DATE=08-Jun-2024 21:48:05
		LINAC=HIT
		MODALITY=P
		INPLANE_AXIS_DIR=TARGET_GUN
		CROSSPLANE_AXIS_DIR=LEFT_RIGHT
		DEPTH_AXIS_DIR=UP_DOWN
		ENERGY=0.00
		SSD=0.00
		FIELD_INPLANE=50.00
		FIELD_CROSSPLANE=50.00
		FIELD_TYPE=RECTANGULAR
		GANTRY=0.00
		GANTRY_UPRIGHT_POSITION=0
		GANTRY_ROTATION=CW
		COLL_ANGLE=90.00
		SCAN_DEVICE=OCTAVIUS_1600_XDR
		ELECTROMETER=DETECTOR_INTERFACE
		ELECTROMETER_SN=5987
		DETECTOR=OCTAVIUS_1600_XDR
		DETECTOR_SN=191760
		FILTER=FF
		SCAN_CURVETYPE=CROSSPLANE_PROFILE
		SCAN_DEPTH=0.00
		SCAN_OFFAXIS_INPLANE=-32.50
		SCAN_ANGLE=0.00
		SCAN_DIAGONAL=NOT_DIAGONAL
		MEAS_PRESET=TIME_PRESET
		MEAS_TIME=20.800
		MEAS_UNIT=GY
		PRESSURE=995.30
		TEMPERATURE=19.10
		NORM_TEMPERATURE=20.00
		CORRECTION_FACTOR=1.1270
		CALIBRATION_FILE=C:\Users\Public\Documents\PTW\Common Files\Calibration Files\230554201_OCTAVIUS1600XDR_191760.cal
		CORRECTIONS=AIR_DENSITY_CORR;FACTOR_CORR;
		BEGIN_DATA
			-32.50		507.45E-06		#1242
			-30.00		883.73E-06		#1206
			-27.50		1.1612E-03		#1170
			-25.00		2.0279E-03		#1134
			-22.50		2.8862E-03		#1098
			-20.00		3.6509E-03		#1062
			-17.50		4.4254E-03		#1026
			-15.00		4.6612E-03		#990
			-12.50		4.8303E-03		#954
			-10.00		5.0459E-03		#918
			-7.50		4.9292E-03		#882
			-5.00		5.1159E-03		#846
			-2.50		5.0436E-03		#810
			0.00		5.0170E-03		#774
			2.50		5.0160E-03		#738
			5.00		5.2224E-03		#702
			7.50		5.0873E-03		#666
			10.00		5.0245E-03		#630
			12.50		4.6335E-03		#594
			15.00		4.3873E-03		#558
			17.50		3.8396E-03		#522
			20.00		2.9529E-03		#486
			22.50		1.9715E-03		#450
			25.00		1.4039E-03		#414
			27.50		918.38E-06		#378
			30.00		538.65E-06		#342
			32.50		433.45E-06		#306
		END_DATA
	END_SCAN  10
	BEGIN_SCAN  11
		TASK_NAME=DOSE
		GROUP_NAME=LR_20.8
		PROGRAM=BeamAdjust 2.3.0.25
		COMMENT=G000, E221_c-dhex3.6_4
		MEAS_DATE=08-Jun-2024 21:48:05
		LINAC=HIT
		MODALITY=P
		INPLANE_AXIS_DIR=TARGET_GUN
		CROSSPLANE_AXIS_DIR=LEFT_RIGHT
		DEPTH_AXIS_DIR=UP_DOWN
		ENERGY=0.00
		SSD=0.00
		FIELD_INPLANE=50.00
		FIELD_CROSSPLANE=50.00
		FIELD_TYPE=RECTANGULAR
		GANTRY=0.00
		GANTRY_UPRIGHT_POSITION=0
		GANTRY_ROTATION=CW
		COLL_ANGLE=90.00
		SCAN_DEVICE=OCTAVIUS_1600_XDR
		ELECTROMETER=DETECTOR_INTERFACE
		ELECTROMETER_SN=5987
		DETECTOR=OCTAVIUS_1600_XDR
		DETECTOR_SN=191760
		FILTER=FF
		SCAN_CURVETYPE=CROSSPLANE_PROFILE
		SCAN_DEPTH=0.00
		SCAN_OFFAXIS_INPLANE=-30.00
		SCAN_ANGLE=0.00
		SCAN_DIAGONAL=NOT_DIAGONAL
		MEAS_PRESET=TIME_PRESET
		MEAS_TIME=20.800
		MEAS_UNIT=GY
		PRESSURE=995.30
		TEMPERATURE=19.10
		NORM_TEMPERATURE=20.00
		CORRECTION_FACTOR=1.1270
		CALIBRATION_FILE=C:\Users\Public\Documents\PTW\Common Files\Calibration Files\230554201_OCTAVIUS1600XDR_191760.cal
		CORRECTIONS=AIR_DENSITY_CORR;FACTOR_CORR;
		BEGIN_DATA
			-75.00		29.062E-06		#1512
			-70.00		61.003E-06		#1481
			-65.00		2.0056E-06		#1450
			-60.00		38.900E-06		#1419
			-55.00		46.122E-06		#1388
			-50.00		-2.8242E-06		#1357
			-45.00		-169.50E-06		#1326
			-40.00		349.43E-06		#1295
			-35.00		511.52E-06		#1264
			-32.50		771.78E-06		#1241
			-30.00		1.3838E-03		#1205
			-27.50		2.3467E-03		#1169
			-25.00		4.3695E-03		#1133
			-22.50		6.6003E-03		#1097
			-20.00		8.8322E-03		#1061
			-17.50		10.119E-03		#1025
			-15.00		10.790E-03		#989
			-12.50		11.033E-03		#953
			-10.00		11.087E-03		#917
			-7.50		11.296E-03		#881
			-5.00		11.295E-03		#845
			-2.50		11.388E-03		#809
			0.00		11.319E-03		#773
			2.50		11.517E-03		#737
			5.00		11.446E-03		#701
			7.50		11.376E-03		#665
			10.00		11.080E-03		#629
			12.50		11.092E-03		#593
			15.00		10.202E-03		#557
			17.50		8.8179E-03		#521
			20.00		6.7045E-03		#485
			22.50		4.2127E-03		#449
			25.00		2.1867E-03		#413
			27.50		1.4371E-03		#377
			30.00		813.16E-06		#341
			32.50		524.46E-06		#305
			35.00		367.20E-06		#270
			40.00		420.31E-06		#239
			45.00		-105.58E-06		#208
			50.00		1.2375E-06		#177
			55.00		103.33E-06		#146
			60.00		39.314E-06		#115
			65.00		-6.8603E-06		#84
			70.00		200.54E-06		#53
			75.00		-57.130E-06		#22
		END_DATA
	END_SCAN  11
	BEGIN_SCAN  12
		TASK_NAME=DOSE
		GROUP_NAME=LR_20.8
		PROGRAM=BeamAdjust 2.3.0.25
		COMMENT=G000, E221_c-dhex3.6_4
		MEAS_DATE=08-Jun-2024 21:48:05
		LINAC=HIT
		MODALITY=P
		INPLANE_AXIS_DIR=TARGET_GUN
		CROSSPLANE_AXIS_DIR=LEFT_RIGHT
		DEPTH_AXIS_DIR=UP_DOWN
		ENERGY=0.00
		SSD=0.00
		FIELD_INPLANE=50.00
		FIELD_CROSSPLANE=50.00
		FIELD_TYPE=RECTANGULAR
		GANTRY=0.00
		GANTRY_UPRIGHT_POSITION=0
		GANTRY_ROTATION=CW
		COLL_ANGLE=90.00
		SCAN_DEVICE=OCTAVIUS_1600_XDR
		ELECTROMETER=DETECTOR_INTERFACE
		ELECTROMETER_SN=5987
		DETECTOR=OCTAVIUS_1600_XDR
		DETECTOR_SN=191760
		FILTER=FF
		SCAN_CURVETYPE=CROSSPLANE_PROFILE
		SCAN_DEPTH=0.00
		SCAN_OFFAXIS_INPLANE=-27.50
		SCAN_ANGLE=0.00
		SCAN_DIAGONAL=NOT_DIAGONAL
		MEAS_PRESET=TIME_PRESET
		MEAS_TIME=20.800
		MEAS_UNIT=GY
		PRESSURE=995.30
		TEMPERATURE=19.10
		NORM_TEMPERATURE=20.00
		CORRECTION_FACTOR=1.1270
		CALIBRATION_FILE=C:\Users\Public\Documents\PTW\Common Files\Calibration Files\230554201_OCTAVIUS1600XDR_191760.cal
		CORRECTIONS=AIR_DENSITY_CORR;FACTOR_CORR;
		BEGIN_DATA
			-32.50		1.1731E-03		#1240
			-30.00		2.1400E-03		#1204
			-27.50		4.2193E-03		#1168
			-25.00		8.4180E-03		#1132
			-22.50		13.831E-03		#1096
			-20.00		18.099E-03		#1060
			-17.50		20.508E-03		#1024
			-15.00		22.149E-03		#988
			-12.50		22.659E-03		#952
			-10.00		22.860E-03		#916
			-7.50		22.883E-03		#880
			-5.00		23.077E-03		#844
			-2.50		22.816E-03		#808
			0.00		23.230E-03		#772
			2.50		23.283E-03		#736
			5.00		23.108E-03		#700
			7.50		23.322E-03		#664
			10.00		22.950E-03		#628
			12.50		22.224E-03		#592
			15.00		20.930E-03		#556
			17.50		18.064E-03		#520
			20.00		13.314E-03		#484
			22.50		7.9716E-03		#448
			25.00		4.2605E-03		#412
			27.50		1.9979E-03		#376
			30.00		1.0476E-03		#340
			32.50		642.07E-06		#304
		END_DATA
	END_SCAN  12
	BEGIN_SCAN  13
		TASK_NAME=DOSE
		GROUP_NAME=LR_20.8
		PROGRAM=BeamAdjust 2.3.0.25
		COMMENT=G000, E221_c-dhex3.6_4
		MEAS_DATE=08-Jun-2024 21:48:05
		LINAC=HIT
		MODALITY=P
		INPLANE_AXIS_DIR=TARGET_GUN
		CROSSPLANE_AXIS_DIR=LEFT_RIGHT
		DEPTH_AXIS_DIR=UP_DOWN
		ENERGY=0.00
		SSD=0.00
		FIELD_INPLANE=50.00
		FIELD_CROSSPLANE=50.00
		FIELD_TYPE=RECTANGULAR
		GANTRY=0.00
		GANTRY_UPRIGHT_POSITION=0
		GANTRY_ROTATION=CW
		COLL_ANGLE=90.00
		SCAN_DEVICE=OCTAVIUS_1600_XDR
		ELECTROMETER=DETECTOR_INTERFACE
		ELECTROMETER_SN=5987
		DETECTOR=OCTAVIUS_1600_XDR
		DETECTOR_SN=191760
		FILTER=FF
		SCAN_CURVETYPE=CROSSPLANE_PROFILE
		SCAN_DEPTH=0.00
		SCAN_OFFAXIS_INPLANE=-25.00
		SCAN_ANGLE=0.00
		SCAN_DIAGONAL=NOT_DIAGONAL
		MEAS_PRESET=TIME_PRESET
		MEAS_TIME=20.800
		MEAS_UNIT=GY
		PRESSURE=995.30
		TEMPERATURE=19.10
		NORM_TEMPERATURE=20.00
		CORRECTION_FACTOR=1.1270
		CALIBRATION_FILE=C:\Users\Public\Documents\PTW\Common Files\Calibration Files\230554201_OCTAVIUS1600XDR_191760.cal
		CORRECTIONS=AIR_DENSITY_CORR;FACTOR_CORR;
		BEGIN_DATA
			-75.00		-59.990E-06		#1511
			-70.00		196.88E-06		#1480
			-65.00		123.07E-06		#1449
			-60.00		79.166E-06		#1418
			-55.00		-44.560E-06		#1387
			-50.00		219.41E-06		#1356
			-45.00		78.146E-06		#1325
			-40.00		457.95E-06		#1294
			-35.00		876.35E-06		#1263
			-32.50		1.6152E-03		#1239
			-30.00		3.3259E-03		#1203
			-27.50		7.3213E-03		#1167
			-25.00		14.385E-03		#1131
			-22.50		23.242E-03		#1095
			-20.00		30.260E-03		#1059
			-17.50		34.287E-03		#1023
			-15.00		35.866E-03		#987
			-12.50		36.782E-03		#951
			-10.00		36.767E-03		#915
			-7.50		37.229E-03		#879
			-5.00		37.271E-03		#843
			-2.50		37.185E-03		#807
			0.00		37.065E-03		#771
			2.50		37.457E-03		#735
			5.00		37.255E-03		#699
			7.50		37.169E-03		#663
			10.00		36.704E-03		#627
			12.50		36.059E-03		#591
			15.00		34.238E-03		#555
			17.50		29.934E-03		#519
			20.00		22.478E-03		#483
			22.50		13.425E-03		#447
			25.00		6.8385E-03		#411
			27.50		2.9236E-03		#375
			30.00		1.4348E-03		#339
			32.50		813.18E-06		#303
			35.00		386.32E-06		#269
			40.00		170.17E-06		#238
			45.00		249.42E-06		#207
			50.00		738.25E-09		#176
			55.00		153.76E-06		#145
			60.00		55.511E-06		#114
			65.00		165.24E-06		#83
			70.00		57.968E-06		#52
			75.00		-59.497E-06		#21
		END_DATA
	END_SCAN  13
	BEGIN_SCAN  14
		TASK_NAME=DOSE
		GROUP_NAME=LR_20.8
		PROGRAM=BeamAdjust 2.3.0.25
		COMMENT=G000, E221_c-dhex3.6_4
		MEAS_DATE=08-Jun-2024 21:48:05
		LINAC=HIT
		MODALITY=P
		INPLANE_AXIS_DIR=TARGET_GUN
		CROSSPLANE_AXIS_DIR=LEFT_RIGHT
		DEPTH_AXIS_DIR=UP_DOWN
		ENERGY=0.00
		SSD=0.00
		FIELD_INPLANE=50.00
		FIELD_CROSSPLANE=50.00
		FIELD_TYPE=RECTANGULAR
		GANTRY=0.00
		GANTRY_UPRIGHT_POSITION=0
		GANTRY_ROTATION=CW
		COLL_ANGLE=90.00
		SCAN_DEVICE=OCTAVIUS_1600_XDR
		ELECTROMETER=DETECTOR_INTERFACE
		ELECTROMETER_SN=5987
		DETECTOR=OCTAVIUS_1600_XDR
		DETECTOR_SN=191760
		FILTER=FF
		SCAN_CURVETYPE=CROSSPLANE_PROFILE
		SCAN_DEPTH=0.00
		SCAN_OFFAXIS_INPLANE=-22.50
		SCAN_ANGLE=0.00
		SCAN_DIAGONAL=NOT_DIAGONAL
		MEAS_PRESET=TIME_PRESET
		MEAS_TIME=20.800
		MEAS_UNIT=GY
		PRESSURE=995.30
		TEMPERATURE=19.10
		NORM_TEMPERATURE=20.00
		CORRECTION_FACTOR=1.1270
		CALIBRATION_FILE=C:\Users\Public\Documents\PTW\Common Files\Calibration Files\230554201_OCTAVIUS1600XDR_191760.cal
		CORRECTIONS=AIR_DENSITY_CORR;FACTOR_CORR;
		BEGIN_DATA
			-32.50		2.0665E-03		#1238
			-30.00		4.6197E-03		#1202
			-27.50		10.399E-03		#1166
			-25.00		20.004E-03		#1130
			-22.50		31.432E-03		#1094
			-20.00		40.391E-03		#1058
			-17.50		44.913E-03		#1022
			-15.00		46.648E-03		#986
			-12.50		47.403E-03		#950
			-10.00		48.195E-03		#914
			-7.50		48.072E-03		#878
			-5.00		48.160E-03		#842
			-2.50		48.220E-03		#806
			0.00		48.466E-03		#770
			2.50		48.463E-03		#734
			5.00		48.198E-03		#698
			7.50		48.269E-03		#662
			10.00		47.508E-03		#626
			12.50		46.991E-03		#590
			15.00		44.992E-03		#554
			17.50		39.615E-03		#518
			20.00		30.107E-03		#482
			22.50		18.848E-03		#446
			25.00		9.3752E-03		#410
			27.50		4.2457E-03		#374
			30.00		1.8834E-03		#338
			32.50		1.0216E-03		#302
		END_DATA
	END_SCAN  14
	BEGIN_SCAN  15
		TASK_NAME=DOSE
		GROUP_NAME=LR_20.8
		PROGRAM=BeamAdjust 2.3.0.25
		COMMENT=G000, E221_c-dhex3.6_4
		MEAS_DATE=08-Jun-2024 21:48:05
		LINAC=HIT
		MODALITY=P
		INPLANE_AXIS_DIR=TARGET_GUN
		CROSSPLANE_AXIS_DIR=LEFT_RIGHT
		DEPTH_AXIS_DIR=UP_DOWN
		ENERGY=0.00
		SSD=0.00
		FIELD_INPLANE=50.00
		FIELD_CROSSPLANE=50.00
		FIELD_TYPE=RECTANGULAR
		GANTRY=0.00
		GANTRY_UPRIGHT_POSITION=0
		GANTRY_ROTATION=CW
		COLL_ANGLE=90.00
		SCAN_DEVICE=OCTAVIUS_1600_XDR
		ELECTROMETER=DETECTOR_INTERFACE
		ELECTROMETER_SN=5987
		DETECTOR=OCTAVIUS_1600_XDR
		DETECTOR_SN=191760
		FILTER=FF
		SCAN_CURVETYPE=CROSSPLANE_PROFILE
		SCAN_DEPTH=0.00
		SCAN_OFFAXIS_INPLANE=-20.00
		SCAN_ANGLE=0.00
		SCAN_DIAGONAL=NOT_DIAGONAL
		MEAS_PRESET=TIME_PRESET
		MEAS_TIME=20.800
		MEAS_UNIT=GY
		PRESSURE=995.30
		TEMPERATURE=19.10
		NORM_TEMPERATURE=20.00
		CORRECTION_FACTOR=1.1270
		CALIBRATION_FILE=C:\Users\Public\Documents\PTW\Common Files\Calibration Files\230554201_OCTAVIUS1600XDR_191760.cal
		CORRECTIONS=AIR_DENSITY_CORR;FACTOR_CORR;
		BEGIN_DATA
			-75.00		80.286E-06		#1510
			-70.00		102.37E-06		#1479
			-65.00		202.13E-06		#1448
			-60.00		56.709E-06		#1417
			-55.00		5.8090E-06		#1386
			-50.00		-116.99E-06		#1355
			-45.00		73.690E-06		#1324
			-40.00		373.21E-06		#1293
			-35.00		1.1821E-03		#1262
			-32.50		2.3592E-03		#1237
			-30.00		5.5397E-03		#1201
			-27.50		12.739E-03		#1165
			-25.00		24.167E-03		#1129
			-22.50		36.440E-03		#1093
			-20.00		45.767E-03		#1057
			-17.50		50.875E-03		#1021
			-15.00		53.097E-03		#985
			-12.50		54.038E-03		#949
			-10.00		54.054E-03		#913
			-7.50		54.789E-03		#877
			-5.00		54.604E-03		#841
			-2.50		54.527E-03		#805
			0.00		54.331E-03		#769
			2.50		54.267E-03		#733
			5.00		54.230E-03		#697
			7.50		53.907E-03		#661
			10.00		53.917E-03		#625
			12.50		52.877E-03		#589
			15.00		50.763E-03		#553
			17.50		44.958E-03		#517
			20.00		35.330E-03		#481
			22.50		21.947E-03		#445
			25.00		11.120E-03		#409
			27.50		4.8923E-03		#373
			30.00		2.1958E-03		#337
			32.50		1.1665E-03		#301
			35.00		657.06E-06		#268
			40.00		202.47E-06		#237
			45.00		214.82E-06		#206
			50.00		129.66E-06		#175
			55.00		170.16E-06		#144
			60.00		140.03E-06		#113
			65.00		11.866E-06		#82
			70.00		-71.837E-06		#51
			75.00		-18.015E-06		#20
		END_DATA
	END_SCAN  15
	BEGIN_SCAN  16
		TASK_NAME=DOSE
