BEGIN_SCAN_DATA
	FORMAT=CC-Export V1.9                  
	FILE_CREATION_DATE=08-Jun-2024 21:52:04
	LAST_MODIFIED=08-Jun-2024 21:52:04
	BEGIN_SCAN  1
		TASK_NAME=DOSE
		GROUP_NAME=LR_50.4
		PROGRAM=BeamAdjust 2.3.0.25
		COMMENT=G000, E221_c-dhex3.6_4
		MEAS_DATE=08-Jun-2024 21:51:58
		LINAC=HIT
		MODALITY=P
		INPLANE_AXIS_DIR=TARGET_GUN
		CROSSPLANE_AXIS_DIR=LEFT_RIGHT
		DEPTH_AXIS_DIR=UP_DOWN
		ENERGY=0.00
		SSD=0.00
		FIELD_INPLANE=50.00
		FIELD_CROSSPLANE=50.00
		FIELD_TYPE=RECTANGULAR
		GANTRY=0.00
		GANTRY_UPRIGHT_POSITION=0
		GANTRY_ROTATION=CW
		COLL_ANGLE=90.00
		SCAN_DEVICE=OCTAVIUS_1600_XDR
		ELECTROMETER=DETECTOR_INTERFACE
		ELECTROMETER_SN=5987
		DETECTOR=OCTAVIUS_1600_XDR
		DETECTOR_SN=191760
		FILTER=FF
		SCAN_CURVETYPE=CROSSPLANE_PROFILE
		SCAN_DEPTH=0.00
		SCAN_OFFAXIS_INPLANE=-75.00
		SCAN_ANGLE=0.00
		SCAN_DIAGONAL=NOT_DIAGONAL
		MEAS_PRESET=TIME_PRESET
		MEAS_TIME=50.400
		MEAS_UNIT=GY
		PRESSURE=995.30
		TEMPERATURE=19.10
		NORM_TEMPERATURE=20.00
		CORRECTION_FACTOR=1.1270
		CALIBRATION_FILE=C:\Users\Public\Documents\PTW\Common Files\Calibration Files\230554201_OCTAVIUS1600XDR_191760.cal
		CORRECTIONS=AIR_DENSITY_CORR;FACTOR_CORR;
		BEGIN_DATA
			-75.00		130.82E-06		#1521
			-70.00		-101.69E-06		#1490
			-65.00		96.306E-06		#1459
			-60.00		4.3395E-06		#1428
			-55.00		2.3118E-06		#1397
			-50.00		141.32E-06		#1366
			-45.00		-89.695E-06		#1335
			-40.00		75.914E-06		#1304
			-35.00		-62.287E-06		#1273
			-30.00		118.87E-06		#1215
			-25.00		496.33E-06		#1143
			-20.00		194.25E-06		#1071
			-15.00		338.38E-06		#999
			-10.00		81.372E-06		#927
			-5.00		146.94E-06		#855
			0.00		-11.573E-06		#783
			5.00		162.47E-06		#711
			10.00		85.709E-06		#639
			15.00		330.71E-06		#567
			20.00		113.22E-06		#495
			25.00		376.59E-06		#423
			30.00		-344.85E-06		#351
			35.00		473.47E-06		#279
			40.00		725.07E-06		#248
			45.00		8.1965E-06		#217
			50.00		-287.71E-06		#186
			55.00		144.42E-06		#155
			60.00		-33.878E-06		#124
			65.00		360.83E-06		#93
			70.00		535.28E-06		#62
			75.00		-422.69E-06		#31
		END_DATA
	END_SCAN  1
	BEGIN_SCAN  2
		TASK_NAME=DOSE
		GROUP_NAME=LR_50.4
		PROGRAM=BeamAdjust 2.3.0.25
		COMMENT=G000, E221_c-dhex3.6_4
		MEAS_DATE=08-Jun-2024 21:51:58
		LINAC=HIT
		MODALITY=P
		INPLANE_AXIS_DIR=TARGET_GUN
		CROSSPLANE_AXIS_DIR=LEFT_RIGHT
		DEPTH_AXIS_DIR=UP_DOWN
		ENERGY=0.00
		SSD=0.00
		FIELD_INPLANE=50.00
		FIELD_CROSSPLANE=50.00
		FIELD_TYPE=RECTANGULAR
		GANTRY=0.00
		GANTRY_UPRIGHT_POSITION=0
		GANTRY_ROTATION=CW
		COLL_ANGLE=90.00
		SCAN_DEVICE=OCTAVIUS_1600_XDR
		ELECTROMETER=DETECTOR_INTERFACE
		ELECTROMETER_SN=5987
		DETECTOR=OCTAVIUS_1600_XDR
		DETECTOR_SN=191760
		FILTER=FF
		SCAN_CURVETYPE=CROSSPLANE_PROFILE
		SCAN_DEPTH=0.00
		SCAN_OFFAXIS_INPLANE=-70.00
		SCAN_ANGLE=0.00
		SCAN_DIAGONAL=NOT_DIAGONAL
		MEAS_PRESET=TIME_PRESET
		MEAS_TIME=50.400
		MEAS_UNIT=GY
		PRESSURE=995.30
		TEMPERATURE=19.10
		NORM_TEMPERATURE=20.00
		CORRECTION_FACTOR=1.1270
		CALIBRATION_FILE=C:\Users\Public\Documents\PTW\Common Files\Calibration Files\230554201_OCTAVIUS1600XDR_191760.cal
		CORRECTIONS=AIR_DENSITY_CORR;FACTOR_CORR;
		BEGIN_DATA
			-75.00		68.683E-06		#1520
			-70.00		119.39E-06		#1489
			-65.00		-61.205E-06		#1458
			-60.00		-72.995E-06		#1427
			-55.00		-37.095E-06		#1396
			-50.00		-162.51E-06		#1365
			-45.00		392.00E-06		#1334
			-40.00		84.106E-06		#1303
			-35.00		415.57E-06		#1272
			-30.00		129.41E-06		#1214
			-25.00		-96.073E-06		#1142
			-20.00		42.775E-06		#1070
			-15.00		-147.61E-06		#998
			-10.00		174.06E-06		#926
			-5.00		493.75E-06		#854
			0.00		184.45E-06		#782
			5.00		123.31E-06		#710
			10.00		329.73E-06		#638
			15.00		114.59E-06		#566
			20.00		-401.96E-06		#494
			25.00		321.44E-06		#422
			30.00		114.75E-06		#350
			35.00		122.13E-06		#278
			40.00		-146.95E-06		#247
			45.00		5.1631E-06		#216
			50.00		178.63E-06		#185
			55.00		67.959E-06		#154
			60.00		252.06E-06		#123
			65.00		63.367E-06		#92
			70.00		10.806E-06		#61
			75.00		285.50E-06		#30
		END_DATA
	END_SCAN  2
	BEGIN_SCAN  3
		TASK_NAME=DOSE
		GROUP_NAME=LR_50.4
		PROGRAM=BeamAdjust 2.3.0.25
		COMMENT=G000, E221_c-dhex3.6_4
		MEAS_DATE=08-Jun-2024 21:51:58
		LINAC=HIT
		MODALITY=P
		INPLANE_AXIS_DIR=TARGET_GUN
		CROSSPLANE_AXIS_DIR=LEFT_RIGHT
		DEPTH_AXIS_DIR=UP_DOWN
		ENERGY=0.00
		SSD=0.00
		FIELD_INPLANE=50.00
		FIELD_CROSSPLANE=50.00
		FIELD_TYPE=RECTANGULAR
		GANTRY=0.00
		GANTRY_UPRIGHT_POSITION=0
		GANTRY_ROTATION=CW
		COLL_ANGLE=90.00
		SCAN_DEVICE=OCTAVIUS_1600_XDR
		ELECTROMETER=DETECTOR_INTERFACE
		ELECTROMETER_SN=5987
		DETECTOR=OCTAVIUS_1600_XDR
		DETECTOR_SN=191760
		FILTER=FF
		SCAN_CURVETYPE=CROSSPLANE_PROFILE
		SCAN_DEPTH=0.00
		SCAN_OFFAXIS_INPLANE=-65.00
		SCAN_ANGLE=0.00
		SCAN_DIAGONAL=NOT_DIAGONAL
		MEAS_PRESET=TIME_PRESET
		MEAS_TIME=50.400
		MEAS_UNIT=GY
		PRESSURE=995.30
		TEMPERATURE=19.10
		NORM_TEMPERATURE=20.00
		CORRECTION_FACTOR=1.1270
		CALIBRATION_FILE=C:\Users\Public\Documents\PTW\Common Files\Calibration Files\230554201_OCTAVIUS1600XDR_191760.cal
		CORRECTIONS=AIR_DENSITY_CORR;FACTOR_CORR;
		BEGIN_DATA
			-75.00		-177.92E-06		#1519
			-70.00		-284.39E-06		#1488
			-65.00		284.07E-06		#1457
			-60.00		120.42E-06		#1426
			-55.00		254.61E-06		#1395
			-50.00		450.87E-06		#1364
			-45.00		-55.151E-06		#1333
			-40.00		155.75E-06		#1302
			-35.00		173.86E-06		#1271
			-30.00		363.99E-06		#1213
			-25.00		98.675E-06		#1141
			-20.00		-10.289E-06		#1069
			-15.00		435.12E-06		#997
			-10.00		324.48E-06		#925
			-5.00		454.70E-06		#853
			0.00		152.65E-06		#781
			5.00		227.20E-06		#709
			10.00		259.50E-06		#637
			15.00		168.39E-06		#565
			20.00		44.191E-06		#493
			25.00		309.30E-06		#421
			30.00		-168.62E-06		#349
			35.00		454.95E-06		#277
			40.00		-127.25E-06		#246
			45.00		492.31E-06		#215
			50.00		198.59E-06		#184
			55.00		241.49E-06		#153
			60.00		43.691E-06		#122
			65.00		6.3452E-06		#91
			70.00		61.615E-06		#60
			75.00		-70.892E-06		#29
		END_DATA
	END_SCAN  3
	BEGIN_SCAN  4
		TASK_NAME=DOSE
		GROUP_NAME=LR_50.4
		PROGRAM=BeamAdjust 2.3.0.25
		COMMENT=G000, E221_c-dhex3.6_4
		MEAS_DATE=08-Jun-2024 21:51:58
		LINAC=HIT
		MODALITY=P
		INPLANE_AXIS_DIR=TARGET_GUN
		CROSSPLANE_AXIS_DIR=LEFT_RIGHT
		DEPTH_AXIS_DIR=UP_DOWN
		ENERGY=0.00
		SSD=0.00
		FIELD_INPLANE=50.00
		FIELD_CROSSPLANE=50.00
		FIELD_TYPE=RECTANGULAR
		GANTRY=0.00
		GANTRY_UPRIGHT_POSITION=0
		GANTRY_ROTATION=CW
		COLL_ANGLE=90.00
		SCAN_DEVICE=OCTAVIUS_1600_XDR
		ELECTROMETER=DETECTOR_INTERFACE
		ELECTROMETER_SN=5987
		DETECTOR=OCTAVIUS_1600_XDR
		DETECTOR_SN=191760
		FILTER=FF
		SCAN_CURVETYPE=CROSSPLANE_PROFILE
		SCAN_DEPTH=0.00
		SCAN_OFFAXIS_INPLANE=-60.00
		SCAN_ANGLE=0.00
		SCAN_DIAGONAL=NOT_DIAGONAL
		MEAS_PRESET=TIME_PRESET
		MEAS_TIME=50.400
		MEAS_UNIT=GY
		PRESSURE=995.30
		TEMPERATURE=19.10
		NORM_TEMPERATURE=20.00
		CORRECTION_FACTOR=1.1270
		CALIBRATION_FILE=C:\Users\Public\Documents\PTW\Common Files\Calibration Files\230554201_OCTAVIUS1600XDR_191760.cal
		CORRECTIONS=AIR_DENSITY_CORR;FACTOR_CORR;
		BEGIN_DATA
			-75.00		93.125E-06		#1518
			-70.00		135.10E-06		#1487
			-65.00		275.96E-06		#1456
			-60.00		-19.647E-06		#1425
			-55.00		184.09E-06		#1394
			-50.00		153.79E-06		#1363
			-45.00		-30.418E-06		#1332
			-40.00		468.68E-06		#1301
			-35.00		50.664E-06		#1270
			-30.00		11.641E-06		#1212
			-25.00		455.52E-06		#1140
			-20.00		294.90E-06		#1068
			-15.00		228.18E-06		#996
			-10.00		652.87E-06		#924
			-5.00		603.94E-06		#852
			0.00		177.33E-06		#780
			5.00		662.69E-06		#708
			10.00		546.63E-06		#636
			15.00		481.47E-06		#564
			20.00		169.76E-06		#492
			25.00		276.31E-06		#420
			30.00		464.77E-06		#348
			35.00		-96.273E-06		#276
			40.00		194.21E-06		#245
			45.00		147.66E-06		#214
			50.00		144.98E-06		#183
			55.00		360.19E-06		#152
			60.00		-20.545E-06		#121
			65.00		686.76E-06		#90
			70.00		-40.588E-06		#59
			75.00		572.69E-06		#28
		END_DATA
	END_SCAN  4
	BEGIN_SCAN  5
		TASK_NAME=DOSE
		GROUP_NAME=LR_50.4
		PROGRAM=BeamAdjust 2.3.0.25
		COMMENT=G000, E221_c-dhex3.6_4
		MEAS_DATE=08-Jun-2024 21:51:58
		LINAC=HIT
		MODALITY=P
		INPLANE_AXIS_DIR=TARGET_GUN
		CROSSPLANE_AXIS_DIR=LEFT_RIGHT
		DEPTH_AXIS_DIR=UP_DOWN
		ENERGY=0.00
		SSD=0.00
		FIELD_INPLANE=50.00
		FIELD_CROSSPLANE=50.00
		FIELD_TYPE=RECTANGULAR
		GANTRY=0.00
		GANTRY_UPRIGHT_POSITION=0
		GANTRY_ROTATION=CW
		COLL_ANGLE=90.00
		SCAN_DEVICE=OCTAVIUS_1600_XDR
		ELECTROMETER=DETECTOR_INTERFACE
		ELECTROMETER_SN=5987
		DETECTOR=OCTAVIUS_1600_XDR
		DETECTOR_SN=191760
		FILTER=FF
		SCAN_CURVETYPE=CROSSPLANE_PROFILE
		SCAN_DEPTH=0.00
		SCAN_OFFAXIS_INPLANE=-55.00
		SCAN_ANGLE=0.00
		SCAN_DIAGONAL=NOT_DIAGONAL
		MEAS_PRESET=TIME_PRESET
		MEAS_TIME=50.400
		MEAS_UNIT=GY
		PRESSURE=995.30
		TEMPERATURE=19.10
		NORM_TEMPERATURE=20.00
		CORRECTION_FACTOR=1.1270
		CALIBRATION_FILE=C:\Users\Public\Documents\PTW\Common Files\Calibration Files\230554201_OCTAVIUS1600XDR_191760.cal
		CORRECTIONS=AIR_DENSITY_CORR;FACTOR_CORR;
		BEGIN_DATA
			-75.00		176.89E-06		#1517
			-70.00		245.04E-06		#1486
			-65.00		41.455E-06		#1455
			-60.00		55.106E-06		#1424
			-55.00		74.204E-06		#1393
			-50.00		101.40E-06		#1362
			-45.00		128.87E-06		#1331
			-40.00		260.78E-06		#1300
			-35.00		401.82E-06		#1269
			-30.00		371.08E-06		#1211
			-25.00		586.03E-06		#1139
			-20.00		353.67E-06		#1067
			-15.00		519.66E-06		#995
			-10.00		187.18E-06		#923
			-5.00		520.76E-06		#851
			0.00		200.65E-06		#779
			5.00		262.24E-06		#707
			10.00		612.05E-06		#635
			15.00		171.08E-06		#563
			20.00		950.41E-06		#491
			25.00		174.76E-06		#419
			30.00		113.88E-06		#347
			35.00		188.81E-06		#275
			40.00		-395.62E-06		#244
			45.00		603.73E-06		#213
			50.00		214.05E-06		#182
			55.00		163.65E-06		#151
			60.00		-290.21E-06		#120
			65.00		72.197E-06		#89
			70.00		71.507E-06		#58
			75.00		-301.12E-06		#27
		END_DATA
	END_SCAN  5
	BEGIN_SCAN  6
		TASK_NAME=DOSE
		GROUP_NAME=LR_50.4
		PROGRAM=BeamAdjust 2.3.0.25
		COMMENT=G000, E221_c-dhex3.6_4
		MEAS_DATE=08-Jun-2024 21:51:58
		LINAC=HIT
		MODALITY=P
		INPLANE_AXIS_DIR=TARGET_GUN
		CROSSPLANE_AXIS_DIR=LEFT_RIGHT
		DEPTH_AXIS_DIR=UP_DOWN
		ENERGY=0.00
		SSD=0.00
		FIELD_INPLANE=50.00
		FIELD_CROSSPLANE=50.00
		FIELD_TYPE=RECTANGULAR
		GANTRY=0.00
		GANTRY_UPRIGHT_POSITION=0
		GANTRY_ROTATION=CW
		COLL_ANGLE=90.00
		SCAN_DEVICE=OCTAVIUS_1600_XDR
		ELECTROMETER=DETECTOR_INTERFACE
		ELECTROMETER_SN=5987
		DETECTOR=OCTAVIUS_1600_XDR
		DETECTOR_SN=191760
		FILTER=FF
		SCAN_CURVETYPE=CROSSPLANE_PROFILE
		SCAN_DEPTH=0.00
		SCAN_OFFAXIS_INPLANE=-50.00
		SCAN_ANGLE=0.00
		SCAN_DIAGONAL=NOT_DIAGONAL
		MEAS_PRESET=TIME_PRESET
		MEAS_TIME=50.400
		MEAS_UNIT=GY
		PRESSURE=995.30
		TEMPERATURE=19.10
		NORM_TEMPERATURE=20.00
		CORRECTION_FACTOR=1.1270
		CALIBRATION_FILE=C:\Users\Public\Documents\PTW\Common Files\Calibration Files\230554201_OCTAVIUS1600XDR_191760.cal
		CORRECTIONS=AIR_DENSITY_CORR;FACTOR_CORR;
		BEGIN_DATA
			-75.00		92.735E-06		#1516
			-70.00		-8.0220E-06		#1485
			-65.00		-21.784E-06		#1454
			-60.00		231.40E-06		#1423
			-55.00		125.15E-06		#1392
			-50.00		149.79E-06		#1361
			-45.00		444.94E-06		#1330
			-40.00		488.92E-06		#1299
			-35.00		505.24E-06		#1268
			-30.00		817.62E-06		#1210
			-25.00		649.20E-06		#1138
			-20.00		768.75E-06		#1066
			-15.00		647.58E-06		#994
			-10.00		503.19E-06		#922
			-5.00		1.0091E-03		#850
			0.00		793.01E-06		#778
			5.00		881.56E-06		#706
			10.00		993.51E-06		#634
			15.00		707.33E-06		#562
			20.00		963.07E-06		#490
			25.00		738.67E-06		#418
			30.00		702.44E-06		#346
			35.00		601.20E-06		#274
			40.00		455.04E-06		#243
			45.00		23.616E-06		#212
			50.00		39.640E-06		#181
			55.00		195.70E-06		#150
			60.00		-2.1203E-06		#119
			65.00		285.05E-06		#88
			70.00		233.11E-06		#57
			75.00		-351.09E-06		#26
		END_DATA
	END_SCAN  6
	BEGIN_SCAN  7
		TASK_NAME=DOSE
		GROUP_NAME=LR_50.4
		PROGRAM=BeamAdjust 2.3.0.25
		COMMENT=G000, E221_c-dhex3.6_4
		MEAS_DATE=08-Jun-2024 21:51:58
		LINAC=HIT
		MODALITY=P
		INPLANE_AXIS_DIR=TARGET_GUN
		CROSSPLANE_AXIS_DIR=LEFT_RIGHT
		DEPTH_AXIS_DIR=UP_DOWN
		ENERGY=0.00
		SSD=0.00
		FIELD_INPLANE=50.00
		FIELD_CROSSPLANE=50.00
		FIELD_TYPE=RECTANGULAR
		GANTRY=0.00
		GANTRY_UPRIGHT_POSITION=0
		GANTRY_ROTATION=CW
		COLL_ANGLE=90.00
		SCAN_DEVICE=OCTAVIUS_1600_XDR
		ELECTROMETER=DETECTOR_INTERFACE
		ELECTROMETER_SN=5987
		DETECTOR=OCTAVIUS_1600_XDR
		DETECTOR_SN=191760
		FILTER=FF
		SCAN_CURVETYPE=CROSSPLANE_PROFILE
		SCAN_DEPTH=0.00
		SCAN_OFFAXIS_INPLANE=-45.00
		SCAN_ANGLE=0.00
		SCAN_DIAGONAL=NOT_DIAGONAL
		MEAS_PRESET=TIME_PRESET
		MEAS_TIME=50.400
		MEAS_UNIT=GY
		PRESSURE=995.30
		TEMPERATURE=19.10
		NORM_TEMPERATURE=20.00
		CORRECTION_FACTOR=1.1270
		CALIBRATION_FILE=C:\Users\Public\Documents\PTW\Common Files\Calibration Files\230554201_OCTAVIUS1600XDR_191760.cal
		CORRECTIONS=AIR_DENSITY_CORR;FACTOR_CORR;
		BEGIN_DATA
			-75.00		336.54E-06		#1515
			-70.00		56.730E-06		#1484
			-65.00		-9.3009E-06		#1453
			-60.00		-178.53E-06		#1422
			-55.00		65.871E-06		#1391
			-50.00		202.43E-06		#1360
			-45.00		470.97E-06		#1329
			-40.00		632.90E-06		#1298
			-35.00		1.5257E-03		#1267
			-30.00		2.3414E-03		#1209
			-25.00		2.3598E-03		#1137
			-20.00		2.6101E-03		#1065
			-15.00		2.7429E-03		#993
			-10.00		2.8965E-03		#921
			-5.00		3.0561E-03		#849
			0.00		2.9884E-03		#777
			5.00		3.0140E-03		#705
			10.00		2.9070E-03		#633
			15.00		2.6617E-03		#561
			20.00		2.4885E-03		#489
			25.00		2.5406E-03		#417
			30.00		2.3367E-03		#345
			35.00		1.4126E-03		#273
			40.00		863.29E-06		#242
			45.00		778.51E-06		#211
			50.00		377.35E-06		#180
			55.00		-34.521E-06		#149
			60.00		172.12E-06		#118
			65.00		512.73E-06		#87
			70.00		144.54E-06		#56
			75.00		-89.210E-06		#25
		END_DATA
	END_SCAN  7
	BEGIN_SCAN  8
		TASK_NAME=DOSE
		GROUP_NAME=LR_50.4
		PROGRAM=BeamAdjust 2.3.0.25
		COMMENT=G000, E221_c-dhex3.6_4
		MEAS_DATE=08-Jun-2024 21:51:58
		LINAC=HIT
		MODALITY=P
		INPLANE_AXIS_DIR=TARGET_GUN
		CROSSPLANE_AXIS_DIR=LEFT_RIGHT
		DEPTH_AXIS_DIR=UP_DOWN
		ENERGY=0.00
		SSD=0.00
		FIELD_INPLANE=50.00
		FIELD_CROSSPLANE=50.00
		FIELD_TYPE=RECTANGULAR
		GANTRY=0.00
		GANTRY_UPRIGHT_POSITION=0
		GANTRY_ROTATION=CW
		COLL_ANGLE=90.00
		SCAN_DEVICE=OCTAVIUS_1600_XDR
		ELECTROMETER=DETECTOR_INTERFACE
		ELECTROMETER_SN=5987
		DETECTOR=OCTAVIUS_1600_XDR
		DETECTOR_SN=191760
		FILTER=FF
		SCAN_CURVETYPE=CROSSPLANE_PROFILE
		SCAN_DEPTH=0.00
		SCAN_OFFAXIS_INPLANE=-40.00
		SCAN_ANGLE=0.00
		SCAN_DIAGONAL=NOT_DIAGONAL
		MEAS_PRESET=TIME_PRESET
		MEAS_TIME=50.400
		MEAS_UNIT=GY
		PRESSURE=995.30
		TEMPERATURE=19.10
		NORM_TEMPERATURE=20.00
		CORRECTION_FACTOR=1.1270
		CALIBRATION_FILE=C:\Users\Public\Documents\PTW\Common Files\Calibration Files\230554201_OCTAVIUS1600XDR_191760.cal
		CORRECTIONS=AIR_DENSITY_CORR;FACTOR_CORR;
		BEGIN_DATA
			-75.00		80.090E-06		#1514
			-70.00		124.60E-06		#1483
			-65.00		174.62E-06		#1452
			-60.00		110.54E-06		#1421
			-55.00		412.35E-06		#1390
			-50.00		731.80E-06		#1359
			-45.00		1.3533E-03		#1328
			-40.00		7.4452E-03		#1297
			-35.00		21.891E-03		#1266
			-30.00		29.094E-03		#1208
			-25.00		29.761E-03		#1136
			-20.00		29.045E-03		#1064
			-15.00		29.946E-03		#992
			-10.00		30.255E-03		#920
			-5.00		30.423E-03		#848
			0.00		30.283E-03		#776
			5.00		31.102E-03		#704
			10.00		31.611E-03		#632
			15.00		30.587E-03		#560
			20.00		30.686E-03		#488
			25.00		30.639E-03		#416
			30.00		28.037E-03		#344
			35.00		16.243E-03		#272
			40.00		3.3122E-03		#241
			45.00		831.48E-06		#210
			50.00		-237.03E-06		#179
			55.00		592.87E-06		#148
			60.00		-14.847E-06		#117
			65.00		507.03E-06		#86
			70.00		97.270E-06		#55
			75.00		406.34E-06		#24
		END_DATA
	END_SCAN  8
	BEGIN_SCAN  9
		TASK_NAME=DOSE
		GROUP_NAME=LR_50.4
		PROGRAM=BeamAdjust 2.3.0.25
		COMMENT=G000, E221_c-dhex3.6_4
		MEAS_DATE=08-Jun-2024 21:51:58
		LINAC=HIT
		MODALITY=P
		INPLANE_AXIS_DIR=TARGET_GUN
		CROSSPLANE_AXIS_DIR=LEFT_RIGHT
		DEPTH_AXIS_DIR=UP_DOWN
		ENERGY=0.00
		SSD=0.00
		FIELD_INPLANE=50.00
		FIELD_CROSSPLANE=50.00
		FIELD_TYPE=RECTANGULAR
		GANTRY=0.00
		GANTRY_UPRIGHT_POSITION=0
		GANTRY_ROTATION=CW
		COLL_ANGLE=90.00
		SCAN_DEVICE=OCTAVIUS_1600_XDR
		ELECTROMETER=DETECTOR_INTERFACE
		ELECTROMETER_SN=5987
		DETECTOR=OCTAVIUS_1600_XDR
		DETECTOR_SN=191760
		FILTER=FF
		SCAN_CURVETYPE=CROSSPLANE_PROFILE
		SCAN_DEPTH=0.00
		SCAN_OFFAXIS_INPLANE=-35.00
		SCAN_ANGLE=0.00
		SCAN_DIAGONAL=NOT_DIAGONAL
		MEAS_PRESET=TIME_PRESET
		MEAS_TIME=50.400
		MEAS_UNIT=GY
		PRESSURE=995.30
		TEMPERATURE=19.10
		NORM_TEMPERATURE=20.00
		CORRECTION_FACTOR=1.1270
		CALIBRATION_FILE=C:\Users\Public\Documents\PTW\Common Files\Calibration Files\230554201_OCTAVIUS1600XDR_191760.cal
		CORRECTIONS=AIR_DENSITY_CORR;FACTOR_CORR;
		BEGIN_DATA
			-75.00		474.62E-06		#1513
			-70.00		-159.31E-06		#1482
			-65.00		445.49E-06		#1451
			-60.00		316.54E-06		#1420
			-55.00		501.79E-06		#1389
			-50.00		612.04E-06		#1358
			-45.00		3.0797E-03		#1327
			-40.00		22.849E-03		#1296
			-35.00		65.828E-03		#1265
			-30.00		84.441E-03		#1207
			-25.00		85.051E-03		#1135
			-20.00		85.322E-03		#1063
			-15.00		86.351E-03		#991
			-10.00		87.014E-03		#919
			-5.00		86.632E-03		#847
			0.00		86.227E-03		#775
			5.00		86.773E-03		#703
			10.00		88.126E-03		#631
			15.00		86.573E-03		#559
			20.00		86.722E-03		#487
			25.00		86.136E-03		#415
			30.00		77.684E-03		#343
			35.00		41.036E-03		#271
			40.00		7.3017E-03		#240
			45.00		703.78E-06		#209
			50.00		214.10E-06		#178
			55.00		80.953E-06		#147
			60.00		195.14E-06		#116
			65.00		86.790E-06		#85
			70.00		193.67E-06		#54
			75.00		-141.86E-06		#23
		END_DATA
	END_SCAN  9
	BEGIN_SCAN  10
		TASK_NAME=DOSE
		GROUP_NAME=LR_50.4
		PROGRAM=BeamAdjust 2.3.0.25
		COMMENT=G000, E221_c-dhex3.6_4
		MEAS_DATE=08-Jun-2024 21:51:58
		LINAC=HIT
		MODALITY=P
		INPLANE_AXIS_DIR=TARGET_GUN
		CROSSPLANE_AXIS_DIR=LEFT_RIGHT
		DEPTH_AXIS_DIR=UP_DOWN
		ENERGY=0.00
		SSD=0.00
		FIELD_INPLANE=50.00
		FIELD_CROSSPLANE=50.00
		FIELD_TYPE=RECTANGULAR
		GANTRY=0.00
		GANTRY_UPRIGHT_POSITION=0
		GANTRY_ROTATION=CW
		COLL_ANGLE=90.00
		SCAN_DEVICE=OCTAVIUS_1600_XDR
		ELECTROMETER=DETECTOR_INTERFACE
		ELECTROMETER_SN=5987
		DETECTOR=OCTAVIUS_1600_XDR
		DETECTOR_SN=191760
		FILTER=FF
		SCAN_CURVETYPE=CROSSPLANE_PROFILE
		SCAN_DEPTH=0.00
		SCAN_OFFAXIS_INPLANE=-32.50
		SCAN_ANGLE=0.00
		SCAN_DIAGONAL=NOT_DIAGONAL
		MEAS_PRESET=TIME_PRESET
		MEAS_TIME=50.400
		MEAS_UNIT=GY
		PRESSURE=995.30
		TEMPERATURE=19.10
		NORM_TEMPERATURE=20.00
		CORRECTION_FACTOR=1.1270
		CALIBRATION_FILE=C:\Users\Public\Documents\PTW\Common Files\Calibration Files\230554201_OCTAVIUS1600XDR_191760.cal
		CORRECTIONS=AIR_DENSITY_CORR;FACTOR_CORR;
		BEGIN_DATA
			-32.50		98.542E-03		#1242
			-30.00		105.81E-03		#1206
			-27.50		107.64E-03		#1170
			-25.00		106.26E-03		#1134
			-22.50		105.03E-03		#1098
			-20.00		106.09E-03		#1062
			-17.50		106.82E-03		#1026
			-15.00		107.28E-03		#990
			-12.50		107.82E-03		#954
			-10.00		107.96E-03		#918
			-7.50		107.82E-03		#882
			-5.00		107.52E-03		#846
			-2.50		106.73E-03		#810
			0.00		107.12E-03		#774
			2.50		106.68E-03		#738
			5.00		108.11E-03		#702
			7.50		107.89E-03		#666
			10.00		108.38E-03		#630
			12.50		108.94E-03		#594
			15.00		107.61E-03		#558
			17.50		108.07E-03		#522
			20.00		107.41E-03		#486
			22.50		107.52E-03		#450
			25.00		106.59E-03		#414
			27.50		104.06E-03		#378
			30.00		95.238E-03		#342
			32.50		75.335E-03		#306
		END_DATA
	END_SCAN  10
	BEGIN_SCAN  11
		TASK_NAME=DOSE
		GROUP_NAME=LR_50.4
		PROGRAM=BeamAdjust 2.3.0.25
		COMMENT=G000, E221_c-dhex3.6_4
		MEAS_DATE=08-Jun-2024 21:51:58
		LINAC=HIT
		MODALITY=P
		INPLANE_AXIS_DIR=TARGET_GUN
		CROSSPLANE_AXIS_DIR=LEFT_RIGHT
		DEPTH_AXIS_DIR=UP_DOWN
		ENERGY=0.00
		SSD=0.00
		FIELD_INPLANE=50.00
		FIELD_CROSSPLANE=50.00
		FIELD_TYPE=RECTANGULAR
		GANTRY=0.00
		GANTRY_UPRIGHT_POSITION=0
		GANTRY_ROTATION=CW
		COLL_ANGLE=90.00
		SCAN_DEVICE=OCTAVIUS_1600_XDR
		ELECTROMETER=DETECTOR_INTERFACE
		ELECTROMETER_SN=5987
		DETECTOR=OCTAVIUS_1600_XDR
		DETECTOR_SN=191760
		FILTER=FF
		SCAN_CURVETYPE=CROSSPLANE_PROFILE
		SCAN_DEPTH=0.00
		SCAN_OFFAXIS_INPLANE=-30.00
		SCAN_ANGLE=0.00
		SCAN_DIAGONAL=NOT_DIAGONAL
		MEAS_PRESET=TIME_PRESET
		MEAS_TIME=50.400
		MEAS_UNIT=GY
		PRESSURE=995.30
		TEMPERATURE=19.10
		NORM_TEMPERATURE=20.00
		CORRECTION_FACTOR=1.1270
		CALIBRATION_FILE=C:\Users\Public\Documents\PTW\Common Files\Calibration Files\230554201_OCTAVIUS1600XDR_191760.cal
		CORRECTIONS=AIR_DENSITY_CORR;FACTOR_CORR;
		BEGIN_DATA
			-75.00		70.573E-06		#1512
			-70.00		232.93E-06		#1481
			-65.00		35.509E-06		#1450
			-60.00		167.66E-06		#1419
			-55.00		633.54E-06		#1388
			-50.00		605.33E-06		#1357
			-45.00		4.0209E-03		#1326
			-40.00		32.644E-03		#1295
			-35.00		90.937E-03		#1264
			-32.50		108.80E-03		#1241
			-30.00		115.46E-03		#1205
			-27.50		116.64E-03		#1169
			-25.00		116.51E-03		#1133
			-22.50		115.68E-03		#1097
			-20.00		116.43E-03		#1061
			-17.50		117.44E-03		#1025
			-15.00		117.32E-03		#989
			-12.50		118.13E-03		#953
			-10.00		117.20E-03		#917
			-7.50		118.48E-03		#881
			-5.00		117.47E-03		#845
			-2.50		116.60E-03		#809
			0.00		116.34E-03		#773
			2.50		117.37E-03		#737
			5.00		116.71E-03		#701
			7.50		118.37E-03		#665
			10.00		117.41E-03		#629
			12.50		118.41E-03		#593
			15.00		117.43E-03		#557
			17.50		117.46E-03		#521
			20.00		116.84E-03		#485
			22.50		116.54E-03		#449
			25.00		115.85E-03		#413
			27.50		113.42E-03		#377
			30.00		102.61E-03		#341
			32.50		81.750E-03		#305
			35.00		52.319E-03		#270
			40.00		9.5335E-03		#239
			45.00		798.52E-06		#208
			50.00		447.05E-06		#177
			55.00		178.24E-06		#146
			60.00		104.62E-06		#115
			65.00		48.440E-06		#84
			70.00		71.829E-06		#53
			75.00		-399.31E-06		#22
		END_DATA
	END_SCAN  11
	BEGIN_SCAN  12
		TASK_NAME=DOSE
		GROUP_NAME=LR_50.4
		PROGRAM=BeamAdjust 2.3.0.25
		COMMENT=G000, E221_c-dhex3.6_4
		MEAS_DATE=08-Jun-2024 21:51:58
		LINAC=HIT
		MODALITY=P
		INPLANE_AXIS_DIR=TARGET_GUN
		CROSSPLANE_AXIS_DIR=LEFT_RIGHT
		DEPTH_AXIS_DIR=UP_DOWN
		ENERGY=0.00
		SSD=0.00
		FIELD_INPLANE=50.00
		FIELD_CROSSPLANE=50.00
		FIELD_TYPE=RECTANGULAR
		GANTRY=0.00
		GANTRY_UPRIGHT_POSITION=0
		GANTRY_ROTATION=CW
		COLL_ANGLE=90.00
		SCAN_DEVICE=OCTAVIUS_1600_XDR
		ELECTROMETER=DETECTOR_INTERFACE
		ELECTROMETER_SN=5987
		DETECTOR=OCTAVIUS_1600_XDR
		DETECTOR_SN=191760
		FILTER=FF
		SCAN_CURVETYPE=CROSSPLANE_PROFILE
		SCAN_DEPTH=0.00
		SCAN_OFFAXIS_INPLANE=-27.50
		SCAN_ANGLE=0.00
		SCAN_DIAGONAL=NOT_DIAGONAL
		MEAS_PRESET=TIME_PRESET
		MEAS_TIME=50.400
		MEAS_UNIT=GY
		PRESSURE=995.30
		TEMPERATURE=19.10
		NORM_TEMPERATURE=20.00
		CORRECTION_FACTOR=1.1270
		CALIBRATION_FILE=C:\Users\Public\Documents\PTW\Common Files\Calibration Files\230554201_OCTAVIUS1600XDR_191760.cal
		CORRECTIONS=AIR_DENSITY_CORR;FACTOR_CORR;
		BEGIN_DATA
			-32.50		110.24E-03		#1240
			-30.00		118.09E-03		#1204
			-27.50		119.03E-03		#1168
			-25.00		119.20E-03		#1132
			-22.50		118.29E-03		#1096
			-20.00		118.86E-03		#1060
			-17.50		118.55E-03		#1024
			-15.00		120.36E-03		#988
			-12.50		119.83E-03		#952
			-10.00		121.06E-03		#916
			-7.50		121.05E-03		#880
			-5.00		119.64E-03		#844
			-2.50		118.37E-03		#808
			0.00		118.79E-03		#772
			2.50		119.44E-03		#736
			5.00		119.56E-03		#700
			7.50		120.72E-03		#664
			10.00		120.27E-03		#628
			12.50		120.36E-03		#592
			15.00		119.99E-03		#556
			17.50		119.43E-03		#520
			20.00		119.47E-03		#484
			22.50		118.81E-03		#448
			25.00		118.67E-03		#412
			27.50		115.00E-03		#376
			30.00		104.46E-03		#340
			32.50		82.795E-03		#304
		END_DATA
	END_SCAN  12
	BEGIN_SCAN  13
		TASK_NAME=DOSE
		GROUP_NAME=LR_50.4
		PROGRAM=BeamAdjust 2.3.0.25
		COMMENT=G000, E221_c-dhex3.6_4
		MEAS_DATE=08-Jun-2024 21:51:58
		LINAC=HIT
		MODALITY=P
		INPLANE_AXIS_DIR=TARGET_GUN
		CROSSPLANE_AXIS_DIR=LEFT_RIGHT
		DEPTH_AXIS_DIR=UP_DOWN
		ENERGY=0.00
		SSD=0.00
		FIELD_INPLANE=50.00
		FIELD_CROSSPLANE=50.00
		FIELD_TYPE=RECTANGULAR
		GANTRY=0.00
		GANTRY_UPRIGHT_POSITION=0
		GANTRY_ROTATION=CW
		COLL_ANGLE=90.00
		SCAN_DEVICE=OCTAVIUS_1600_XDR
		ELECTROMETER=DETECTOR_INTERFACE
		ELECTROMETER_SN=5987
		DETECTOR=OCTAVIUS_1600_XDR
		DETECTOR_SN=191760
		FILTER=FF
		SCAN_CURVETYPE=CROSSPLANE_PROFILE
		SCAN_DEPTH=0.00
		SCAN_OFFAXIS_INPLANE=-25.00
		SCAN_ANGLE=0.00
		SCAN_DIAGONAL=NOT_DIAGONAL
		MEAS_PRESET=TIME_PRESET
		MEAS_TIME=50.400
		MEAS_UNIT=GY
		PRESSURE=995.30
		TEMPERATURE=19.10
		NORM_TEMPERATURE=20.00
		CORRECTION_FACTOR=1.1270
		CALIBRATION_FILE=C:\Users\Public\Documents\PTW\Common Files\Calibration Files\230554201_OCTAVIUS1600XDR_191760.cal
		CORRECTIONS=AIR_DENSITY_CORR;FACTOR_CORR;
		BEGIN_DATA
			-75.00		44.304E-06		#1511
			-70.00		93.776E-06		#1480
			-65.00		285.12E-06		#1449
			-60.00		202.57E-06		#1418
			-55.00		358.17E-06		#1387
			-50.00		952.89E-06		#1356
			-45.00		4.6337E-03		#1325
			-40.00		33.449E-03		#1294
			-35.00		93.063E-03		#1263
			-32.50		110.59E-03		#1239
			-30.00		118.55E-03		#1203
			-27.50		120.32E-03		#1167
			-25.00		119.74E-03		#1131
			-22.50		118.72E-03		#1095
			-20.00		119.75E-03		#1059
			-17.50		120.27E-03		#1023
			-15.00		119.51E-03		#987
			-12.50		120.68E-03		#951
			-10.00		121.04E-03		#915
			-7.50		121.51E-03		#879
			-5.00		120.24E-03		#843
			-2.50		119.13E-03		#807
			0.00		119.11E-03		#771
			2.50		120.58E-03		#735
			5.00		119.74E-03		#699
			7.50		120.20E-03		#663
			10.00		120.77E-03		#627
			12.50		120.72E-03		#591
			15.00		120.29E-03		#555
			17.50		120.14E-03		#519
			20.00		120.13E-03		#483
			22.50		119.29E-03		#447
			25.00		118.73E-03		#411
			27.50		115.05E-03		#375
			30.00		105.28E-03		#339
			32.50		83.290E-03		#303
			35.00		54.375E-03		#269
			40.00		9.2987E-03		#238
			45.00		1.6781E-03		#207
			50.00		539.75E-06		#176
			55.00		568.53E-06		#145
			60.00		253.69E-06		#114
			65.00		460.11E-06		#83
			70.00		-91.724E-06		#52
			75.00		118.33E-06		#21
		END_DATA
	END_SCAN  13
	BEGIN_SCAN  14
		TASK_NAME=DOSE
		GROUP_NAME=LR_50.4
		PROGRAM=BeamAdjust 2.3.0.25
		COMMENT=G000, E221_c-dhex3.6_4
		MEAS_DATE=08-Jun-2024 21:51:58
		LINAC=HIT
		MODALITY=P
		INPLANE_AXIS_DIR=TARGET_GUN
		CROSSPLANE_AXIS_DIR=LEFT_RIGHT
		DEPTH_AXIS_DIR=UP_DOWN
		ENERGY=0.00
		SSD=0.00
		FIELD_INPLANE=50.00
		FIELD_CROSSPLANE=50.00
		FIELD_TYPE=RECTANGULAR
		GANTRY=0.00
		GANTRY_UPRIGHT_POSITION=0
		GANTRY_ROTATION=CW
		COLL_ANGLE=90.00
		SCAN_DEVICE=OCTAVIUS_1600_XDR
		ELECTROMETER=DETECTOR_INTERFACE
		ELECTROMETER_SN=5987
		DETECTOR=OCTAVIUS_1600_XDR
		DETECTOR_SN=191760
		FILTER=FF
		SCAN_CURVETYPE=CROSSPLANE_PROFILE
		SCAN_DEPTH=0.00
		SCAN_OFFAXIS_INPLANE=-22.50
		SCAN_ANGLE=0.00
		SCAN_DIAGONAL=NOT_DIAGONAL
		MEAS_PRESET=TIME_PRESET
		MEAS_TIME=50.400
		MEAS_UNIT=GY
		PRESSURE=995.30
		TEMPERATURE=19.10
		NORM_TEMPERATURE=20.00
		CORRECTION_FACTOR=1.1270
		CALIBRATION_FILE=C:\Users\Public\Documents\PTW\Common Files\Calibration Files\230554201_OCTAVIUS1600XDR_191760.cal
		CORRECTIONS=AIR_DENSITY_CORR;FACTOR_CORR;
		BEGIN_DATA
			-32.50		110.42E-03		#1238
			-30.00		118.36E-03		#1202
			-27.50		120.05E-03		#1166
			-25.00		119.86E-03		#1130
			-22.50		119.01E-03		#1094
			-20.00		120.49E-03		#1058
			-17.50		120.41E-03		#1022
			-15.00		119.56E-03		#986
			-12.50		120.25E-03		#950
			-10.00		121.78E-03		#914
			-7.50		121.43E-03		#878
			-5.00		120.03E-03		#842
			-2.50		119.42E-03		#806
			0.00		119.50E-03		#770
			2.50		120.35E-03		#734
			5.00		120.41E-03		#698
			7.50		120.60E-03		#662
			10.00		120.30E-03		#626
			12.50		121.19E-03		#590
			15.00		120.80E-03		#554
			17.50		119.88E-03		#518
			20.00		119.69E-03		#482
			22.50		119.88E-03		#446
			25.00		118.64E-03		#410
			27.50		115.40E-03		#374
			30.00		105.29E-03		#338
			32.50		83.159E-03		#302
		END_DATA
	END_SCAN  14
	BEGIN_SCAN  15
		TASK_NAME=DOSE
		GROUP_NAME=LR_50.4
		PROGRAM=BeamAdjust 2.3.0.25
		COMMENT=G000, E221_c-dhex3.6_4
		MEAS_DATE=08-Jun-2024 21:51:58
		LINAC=HIT
		MODALITY=P
		INPLANE_AXIS_DIR=TARGET_GUN
		CROSSPLANE_AXIS_DIR=LEFT_RIGHT
		DEPTH_AXIS_DIR=UP_DOWN
		ENERGY=0.00
		SSD=0.00
		FIELD_INPLANE=50.00
		FIELD_CROSSPLANE=50.00
		FIELD_TYPE=RECTANGULAR
		GANTRY=0.00
		GANTRY_UPRIGHT_POSITION=0
		GANTRY_ROTATION=CW
		COLL_ANGLE=90.00
		SCAN_DEVICE=OCTAVIUS_1600_XDR
		ELECTROMETER=DETECTOR_INTERFACE
		ELECTROMETER_SN=5987
		DETECTOR=OCTAVIUS_1600_XDR
		DETECTOR_SN=191760
		FILTER=FF
		SCAN_CURVETYPE=CROSSPLANE_PROFILE
		SCAN_DEPTH=0.00
		SCAN_OFFAXIS_INPLANE=-20.00
		SCAN_ANGLE=0.00
		SCAN_DIAGONAL=NOT_DIAGONAL
		MEAS_PRESET=TIME_PRESET
		MEAS_TIME=50.400
		MEAS_UNIT=GY
		PRESSURE=995.30
		TEMPERATURE=19.10
		NORM_TEMPERATURE=20.00
		CORRECTION_FACTOR=1.1270
		CALIBRATION_FILE=C:\Users\Public\Documents\PTW\Common Files\Calibration Files\230554201_OCTAVIUS1600XDR_191760.cal
		CORRECTIONS=AIR_DENSITY_CORR;FACTOR_CORR;
		BEGIN_DATA
			-75.00		255.60E-06		#1510
			-70.00		257.48E-06		#1479
			-65.00		229.70E-06		#1448
			-60.00		70.758E-06		#1417
			-55.00		268.89E-06		#1386
			-50.00		501.41E-06		#1355
			-45.00		4.4714E-03		#1324
			-40.00		33.622E-03		#1293
			-35.00		93.366E-03		#1262
			-32.50		110.49E-03		#1237
			-30.00		118.78E-03		#1201
			-27.50		120.55E-03		#1165
			-25.00		120.62E-03		#1129
			-22.50		119.37E-03		#1093
			-20.00		119.89E-03		#1057
			-17.50		120.51E-03		#1021
			-15.00		121.48E-03		#985
			-12.50		121.27E-03		#949
			-10.00		121.26E-03		#913
			-7.50		122.53E-03		#877
			-5.00		120.81E-03		#841
			-2.50		119.68E-03		#805
			0.00		119.97E-03		#769
			2.50		120.61E-03		#733
			5.00		120.96E-03		#697
			7.50		120.78E-03		#661
			10.00		121.44E-03		#625
			12.50		122.19E-03		#589
			15.00		121.12E-03		#553
			17.50		121.12E-03		#517
			20.00		121.06E-03		#481
			22.50		120.08E-03		#445
			25.00		119.33E-03		#409
			27.50		115.19E-03		#373
			30.00		105.13E-03		#337
			32.50		84.597E-03		#301
			35.00		54.710E-03		#268
			40.00		10.017E-03		#237
			45.00		1.4212E-03		#206
			50.00		574.72E-06		#175
			55.00		358.49E-06		#144
			60.00		581.50E-06		#113
			65.00		78.011E-06		#82
			70.00		-112.09E-06		#51
			75.00		163.86E-06		#20
		END_DATA
	END_SCAN  15
	BEGIN_SCAN  16
		TASK_NAME=DOSE
		GROUP_NAME=LR_50.4
