BEGIN_SCAN_DATA
	FORMAT=CC-Export V1.9                  
	FILE_CREATION_DATE=08-Jun-2024 21:59:59
	LAST_MODIFIED=08-Jun-2024 21:59:59
	BEGIN_SCAN  1
		TASK_NAME=DOSE
		GROUP_NAME=LR_26.4
		PROGRAM=BeamAdjust 2.3.0.25
		COMMENT=G000, E221_c-dhex3.6_4
		MEAS_DATE=08-Jun-2024 21:59:53
		LINAC=HIT
		MODALITY=P
		INPLANE_AXIS_DIR=TARGET_GUN
		CROSSPLANE_AXIS_DIR=LEFT_RIGHT
		DEPTH_AXIS_DIR=UP_DOWN
		ENERGY=0.00
		SSD=0.00
		FIELD_INPLANE=50.00
		FIELD_CROSSPLANE=50.00
		FIELD_TYPE=RECTANGULAR
		GANTRY=0.00
		GANTRY_UPRIGHT_POSITION=0
		GANTRY_ROTATION=CW
		COLL_ANGLE=90.00
		SCAN_DEVICE=OCTAVIUS_1600_XDR
		ELECTROMETER=DETECTOR_INTERFACE
		ELECTROMETER_SN=5987
		DETECTOR=OCTAVIUS_1600_XDR
		DETECTOR_SN=191760
		FILTER=FF
		SCAN_CURVETYPE=CROSSPLANE_PROFILE
		SCAN_DEPTH=0.00
		SCAN_OFFAXIS_INPLANE=-75.00
		SCAN_ANGLE=0.00
		SCAN_DIAGONAL=NOT_DIAGONAL
		MEAS_PRESET=TIME_PRESET
		MEAS_TIME=26.400
		MEAS_UNIT=GY
		PRESSURE=995.30
		TEMPERATURE=19.10
		NORM_TEMPERATURE=20.00
		CORRECTION_FACTOR=1.1270
		CALIBRATION_FILE=C:\Users\Public\Documents\PTW\Common Files\Calibration Files\230554201_OCTAVIUS1600XDR_191760.cal
		CORRECTIONS=AIR_DENSITY_CORR;FACTOR_CORR;
		BEGIN_DATA
			-75.00		177.43E-06		#1521
			-70.00		25.802E-06		#1490
			-65.00		-19.644E-06		#1459
			-60.00		92.568E-06		#1428
			-55.00		-77.756E-06		#1397
			-50.00		44.174E-06		#1366
			-45.00		-40.127E-06		#1335
			-40.00		61.490E-06		#1304
			-35.00		3.9711E-06		#1273
			-30.00		50.467E-06		#1215
			-25.00		274.21E-06		#1143
			-20.00		112.29E-06		#1071
			-15.00		77.370E-06		#999
			-10.00		90.193E-06		#927
			-5.00		270.95E-06		#855
			0.00		-2.3815E-06		#783
			5.00		-27.892E-06		#711
			10.00		130.57E-06		#639
			15.00		58.095E-06		#567
			20.00		84.651E-06		#495
			25.00		159.37E-06		#423
			30.00		-276.50E-06		#351
			35.00		375.06E-06		#279
			40.00		307.35E-06		#248
			45.00		198.51E-06		#217
			50.00		-98.994E-06		#186
			55.00		129.27E-06		#155
			60.00		16.329E-06		#124
			65.00		258.21E-06		#93
			70.00		373.11E-06		#62
			75.00		-269.36E-06		#31
		END_DATA
	END_SCAN  1
	BEGIN_SCAN  2
		TASK_NAME=DOSE
		GROUP_NAME=LR_26.4
		PROGRAM=BeamAdjust 2.3.0.25
		COMMENT=G000, E221_c-dhex3.6_4
		MEAS_DATE=08-Jun-2024 21:59:53
		LINAC=HIT
		MODALITY=P
		INPLANE_AXIS_DIR=TARGET_GUN
		CROSSPLANE_AXIS_DIR=LEFT_RIGHT
		DEPTH_AXIS_DIR=UP_DOWN
		ENERGY=0.00
		SSD=0.00
		FIELD_INPLANE=50.00
		FIELD_CROSSPLANE=50.00
		FIELD_TYPE=RECTANGULAR
		GANTRY=0.00
		GANTRY_UPRIGHT_POSITION=0
		GANTRY_ROTATION=CW
		COLL_ANGLE=90.00
		SCAN_DEVICE=OCTAVIUS_1600_XDR
		ELECTROMETER=DETECTOR_INTERFACE
		ELECTROMETER_SN=5987
		DETECTOR=OCTAVIUS_1600_XDR
		DETECTOR_SN=191760
		FILTER=FF
		SCAN_CURVETYPE=CROSSPLANE_PROFILE
		SCAN_DEPTH=0.00
		SCAN_OFFAXIS_INPLANE=-70.00
		SCAN_ANGLE=0.00
		SCAN_DIAGONAL=NOT_DIAGONAL
		MEAS_PRESET=TIME_PRESET
		MEAS_TIME=26.400
		MEAS_UNIT=GY
		PRESSURE=995.30
		TEMPERATURE=19.10
		NORM_TEMPERATURE=20.00
		CORRECTION_FACTOR=1.1270
		CALIBRATION_FILE=C:\Users\Public\Documents\PTW\Common Files\Calibration Files\230554201_OCTAVIUS1600XDR_191760.cal
		CORRECTIONS=AIR_DENSITY_CORR;FACTOR_CORR;
		BEGIN_DATA
			-75.00		90.077E-06		#1520
			-70.00		174.36E-06		#1489
			-65.00		31.650E-06		#1458
			-60.00		-113.78E-06		#1427
			-55.00		61.510E-06		#1396
			-50.00		18.472E-06		#1365
			-45.00		100.58E-06		#1334
			-40.00		5.6816E-06		#1303
			-35.00		354.94E-06		#1272
			-30.00		145.44E-06		#1214
			-25.00		-18.584E-06		#1142
			-20.00		212.60E-06		#1070
			-15.00		71.917E-06		#998
			-10.00		128.75E-06		#926
			-5.00		372.33E-06		#854
			0.00		67.231E-06		#782
			5.00		19.933E-06		#710
			10.00		48.076E-06		#638
			15.00		-37.507E-06		#566
			20.00		-104.15E-06		#494
			25.00		183.69E-06		#422
			30.00		150.02E-06		#350
			35.00		98.696E-06		#278
			40.00		-93.287E-06		#247
			45.00		-14.923E-06		#216
			50.00		165.07E-06		#185
			55.00		-23.594E-06		#154
			60.00		57.676E-06		#123
			65.00		23.046E-06		#92
			70.00		52.041E-06		#61
			75.00		134.10E-06		#30
		END_DATA
	END_SCAN  2
	BEGIN_SCAN  3
		TASK_NAME=DOSE
		GROUP_NAME=LR_26.4
		PROGRAM=BeamAdjust 2.3.0.25
		COMMENT=G000, E221_c-dhex3.6_4
		MEAS_DATE=08-Jun-2024 21:59:53
		LINAC=HIT
		MODALITY=P
		INPLANE_AXIS_DIR=TARGET_GUN
		CROSSPLANE_AXIS_DIR=LEFT_RIGHT
		DEPTH_AXIS_DIR=UP_DOWN
		ENERGY=0.00
		SSD=0.00
		FIELD_INPLANE=50.00
		FIELD_CROSSPLANE=50.00
		FIELD_TYPE=RECTANGULAR
		GANTRY=0.00
		GANTRY_UPRIGHT_POSITION=0
		GANTRY_ROTATION=CW
		COLL_ANGLE=90.00
		SCAN_DEVICE=OCTAVIUS_1600_XDR
		ELECTROMETER=DETECTOR_INTERFACE
		ELECTROMETER_SN=5987
		DETECTOR=OCTAVIUS_1600_XDR
		DETECTOR_SN=191760
		FILTER=FF
		SCAN_CURVETYPE=CROSSPLANE_PROFILE
		SCAN_DEPTH=0.00
		SCAN_OFFAXIS_INPLANE=-65.00
		SCAN_ANGLE=0.00
		SCAN_DIAGONAL=NOT_DIAGONAL
		MEAS_PRESET=TIME_PRESET
		MEAS_TIME=26.400
		MEAS_UNIT=GY
		PRESSURE=995.30
		TEMPERATURE=19.10
		NORM_TEMPERATURE=20.00
		CORRECTION_FACTOR=1.1270
		CALIBRATION_FILE=C:\Users\Public\Documents\PTW\Common Files\Calibration Files\230554201_OCTAVIUS1600XDR_191760.cal
		CORRECTIONS=AIR_DENSITY_CORR;FACTOR_CORR;
		BEGIN_DATA
			-75.00		-66.884E-06		#1519
			-70.00		-116.34E-06		#1488
			-65.00		164.85E-06		#1457
			-60.00		59.623E-06		#1426
			-55.00		144.90E-06		#1395
			-50.00		218.81E-06		#1364
			-45.00		34.870E-06		#1333
			-40.00		84.140E-06		#1302
			-35.00		211.12E-06		#1271
			-30.00		183.94E-06		#1213
			-25.00		87.722E-06		#1141
			-20.00		91.302E-06		#1069
			-15.00		289.14E-06		#997
			-10.00		75.365E-06		#925
			-5.00		167.38E-06		#853
			0.00		148.74E-06		#781
			5.00		69.735E-06		#709
			10.00		137.32E-06		#637
			15.00		66.505E-06		#565
			20.00		-136.57E-06		#493
			25.00		217.73E-06		#421
			30.00		-23.759E-06		#349
			35.00		237.53E-06		#277
			40.00		48.003E-06		#246
			45.00		152.27E-06		#215
			50.00		31.391E-06		#184
			55.00		84.670E-06		#153
			60.00		28.374E-06		#122
			65.00		-139.88E-06		#91
			70.00		60.206E-06		#60
			75.00		19.366E-06		#29
		END_DATA
	END_SCAN  3
	BEGIN_SCAN  4
		TASK_NAME=DOSE
		GROUP_NAME=LR_26.4
		PROGRAM=BeamAdjust 2.3.0.25
		COMMENT=G000, E221_c-dhex3.6_4
		MEAS_DATE=08-Jun-2024 21:59:53
		LINAC=HIT
		MODALITY=P
		INPLANE_AXIS_DIR=TARGET_GUN
		CROSSPLANE_AXIS_DIR=LEFT_RIGHT
		DEPTH_AXIS_DIR=UP_DOWN
		ENERGY=0.00
		SSD=0.00
		FIELD_INPLANE=50.00
		FIELD_CROSSPLANE=50.00
		FIELD_TYPE=RECTANGULAR
		GANTRY=0.00
		GANTRY_UPRIGHT_POSITION=0
		GANTRY_ROTATION=CW
		COLL_ANGLE=90.00
		SCAN_DEVICE=OCTAVIUS_1600_XDR
		ELECTROMETER=DETECTOR_INTERFACE
		ELECTROMETER_SN=5987
		DETECTOR=OCTAVIUS_1600_XDR
		DETECTOR_SN=191760
		FILTER=FF
		SCAN_CURVETYPE=CROSSPLANE_PROFILE
		SCAN_DEPTH=0.00
		SCAN_OFFAXIS_INPLANE=-60.00
		SCAN_ANGLE=0.00
		SCAN_DIAGONAL=NOT_DIAGONAL
		MEAS_PRESET=TIME_PRESET
		MEAS_TIME=26.400
		MEAS_UNIT=GY
		PRESSURE=995.30
		TEMPERATURE=19.10
		NORM_TEMPERATURE=20.00
		CORRECTION_FACTOR=1.1270
		CALIBRATION_FILE=C:\Users\Public\Documents\PTW\Common Files\Calibration Files\230554201_OCTAVIUS1600XDR_191760.cal
		CORRECTIONS=AIR_DENSITY_CORR;FACTOR_CORR;
		BEGIN_DATA
			-75.00		13.369E-06		#1518
			-70.00		-56.630E-06		#1487
			-65.00		82.704E-06		#1456
			-60.00		-102.09E-06		#1425
			-55.00		149.12E-06		#1394
			-50.00		183.41E-06		#1363
			-45.00		-125.83E-06		#1332
			-40.00		198.70E-06		#1301
			-35.00		248.73E-06		#1270
			-30.00		132.68E-06		#1212
			-25.00		237.35E-06		#1140
			-20.00		235.09E-06		#1068
			-15.00		181.13E-06		#996
			-10.00		284.23E-06		#924
			-5.00		363.57E-06		#852
			0.00		63.876E-06		#780
			5.00		331.57E-06		#708
			10.00		350.30E-06		#636
			15.00		309.83E-06		#564
			20.00		78.094E-06		#492
			25.00		76.987E-06		#420
			30.00		223.65E-06		#348
			35.00		8.1044E-06		#276
			40.00		337.19E-06		#245
			45.00		136.12E-06		#214
			50.00		227.93E-06		#183
			55.00		262.58E-06		#152
			60.00		48.973E-06		#121
			65.00		318.12E-06		#90
			70.00		601.13E-09		#59
			75.00		183.51E-06		#28
		END_DATA
	END_SCAN  4
	BEGIN_SCAN  5
		TASK_NAME=DOSE
		GROUP_NAME=LR_26.4
		PROGRAM=BeamAdjust 2.3.0.25
		COMMENT=G000, E221_c-dhex3.6_4
		MEAS_DATE=08-Jun-2024 21:59:53
		LINAC=HIT
		MODALITY=P
		INPLANE_AXIS_DIR=TARGET_GUN
		CROSSPLANE_AXIS_DIR=LEFT_RIGHT
		DEPTH_AXIS_DIR=UP_DOWN
		ENERGY=0.00
		SSD=0.00
		FIELD_INPLANE=50.00
		FIELD_CROSSPLANE=50.00
		FIELD_TYPE=RECTANGULAR
		GANTRY=0.00
		GANTRY_UPRIGHT_POSITION=0
		GANTRY_ROTATION=CW
		COLL_ANGLE=90.00
		SCAN_DEVICE=OCTAVIUS_1600_XDR
		ELECTROMETER=DETECTOR_INTERFACE
		ELECTROMETER_SN=5987
		DETECTOR=OCTAVIUS_1600_XDR
		DETECTOR_SN=191760
		FILTER=FF
		SCAN_CURVETYPE=CROSSPLANE_PROFILE
		SCAN_DEPTH=0.00
		SCAN_OFFAXIS_INPLANE=-55.00
		SCAN_ANGLE=0.00
		SCAN_DIAGONAL=NOT_DIAGONAL
		MEAS_PRESET=TIME_PRESET
		MEAS_TIME=26.400
		MEAS_UNIT=GY
		PRESSURE=995.30
		TEMPERATURE=19.10
		NORM_TEMPERATURE=20.00
		CORRECTION_FACTOR=1.1270
		CALIBRATION_FILE=C:\Users\Public\Documents\PTW\Common Files\Calibration Files\230554201_OCTAVIUS1600XDR_191760.cal
		CORRECTIONS=AIR_DENSITY_CORR;FACTOR_CORR;
		BEGIN_DATA
			-75.00		-38.509E-06		#1517
			-70.00		29.969E-06		#1486
			-65.00		150.29E-06		#1455
			-60.00		110.66E-06		#1424
			-55.00		46.371E-06		#1393
			-50.00		59.942E-06		#1362
			-45.00		184.07E-06		#1331
			-40.00		136.40E-06		#1300
			-35.00		397.38E-06		#1269
			-30.00		374.73E-06		#1211
			-25.00		312.67E-06		#1139
			-20.00		186.97E-06		#1067
			-15.00		318.99E-06		#995
			-10.00		313.83E-06		#923
			-5.00		169.45E-06		#851
			0.00		281.64E-06		#779
			5.00		356.81E-06		#707
			10.00		377.72E-06		#635
			15.00		226.07E-06		#563
			20.00		408.99E-06		#491
			25.00		65.393E-06		#419
			30.00		83.311E-06		#347
			35.00		286.18E-06		#275
			40.00		-12.486E-06		#244
			45.00		406.02E-06		#213
			50.00		198.57E-06		#182
			55.00		2.4845E-06		#151
			60.00		21.878E-06		#120
			65.00		135.81E-06		#89
			70.00		51.582E-06		#58
			75.00		-223.77E-06		#27
		END_DATA
	END_SCAN  5
	BEGIN_SCAN  6
		TASK_NAME=DOSE
		GROUP_NAME=LR_26.4
		PROGRAM=BeamAdjust 2.3.0.25
		COMMENT=G000, E221_c-dhex3.6_4
		MEAS_DATE=08-Jun-2024 21:59:53
		LINAC=HIT
		MODALITY=P
		INPLANE_AXIS_DIR=TARGET_GUN
		CROSSPLANE_AXIS_DIR=LEFT_RIGHT
		DEPTH_AXIS_DIR=UP_DOWN
		ENERGY=0.00
		SSD=0.00
		FIELD_INPLANE=50.00
		FIELD_CROSSPLANE=50.00
		FIELD_TYPE=RECTANGULAR
		GANTRY=0.00
		GANTRY_UPRIGHT_POSITION=0
		GANTRY_ROTATION=CW
		COLL_ANGLE=90.00
		SCAN_DEVICE=OCTAVIUS_1600_XDR
		ELECTROMETER=DETECTOR_INTERFACE
		ELECTROMETER_SN=5987
		DETECTOR=OCTAVIUS_1600_XDR
		DETECTOR_SN=191760
		FILTER=FF
		SCAN_CURVETYPE=CROSSPLANE_PROFILE
		SCAN_DEPTH=0.00
		SCAN_OFFAXIS_INPLANE=-50.00
		SCAN_ANGLE=0.00
		SCAN_DIAGONAL=NOT_DIAGONAL
		MEAS_PRESET=TIME_PRESET
		MEAS_TIME=26.400
		MEAS_UNIT=GY
		PRESSURE=995.30
		TEMPERATURE=19.10
		NORM_TEMPERATURE=20.00
		CORRECTION_FACTOR=1.1270
		CALIBRATION_FILE=C:\Users\Public\Documents\PTW\Common Files\Calibration Files\230554201_OCTAVIUS1600XDR_191760.cal
		CORRECTIONS=AIR_DENSITY_CORR;FACTOR_CORR;
		BEGIN_DATA
			-75.00		58.486E-06		#1516
			-70.00		77.004E-06		#1485
			-65.00		-158.62E-06		#1454
			-60.00		113.10E-06		#1423
			-55.00		193.21E-06		#1392
			-50.00		113.49E-06		#1361
			-45.00		268.25E-06		#1330
			-40.00		379.13E-06		#1299
			-35.00		322.49E-06		#1268
			-30.00		741.15E-06		#1210
			-25.00		351.86E-06		#1138
			-20.00		586.90E-06		#1066
			-15.00		486.03E-06		#994
			-10.00		571.96E-06		#922
			-5.00		665.79E-06		#850
			0.00		700.07E-06		#778
			5.00		755.09E-06		#706
			10.00		653.00E-06		#634
			15.00		594.84E-06		#562
			20.00		790.97E-06		#490
			25.00		629.46E-06		#418
			30.00		429.92E-06		#346
			35.00		282.50E-06		#274
			40.00		288.92E-06		#243
			45.00		27.064E-06		#212
			50.00		101.29E-06		#181
			55.00		181.32E-06		#150
			60.00		122.15E-06		#119
			65.00		60.678E-06		#88
			70.00		251.74E-06		#57
			75.00		-36.141E-06		#26
		END_DATA
	END_SCAN  6
	BEGIN_SCAN  7
		TASK_NAME=DOSE
		GROUP_NAME=LR_26.4
		PROGRAM=BeamAdjust 2.3.0.25
		COMMENT=G000, E221_c-dhex3.6_4
		MEAS_DATE=08-Jun-2024 21:59:53
		LINAC=HIT
		MODALITY=P
		INPLANE_AXIS_DIR=TARGET_GUN
		CROSSPLANE_AXIS_DIR=LEFT_RIGHT
		DEPTH_AXIS_DIR=UP_DOWN
		ENERGY=0.00
		SSD=0.00
		FIELD_INPLANE=50.00
		FIELD_CROSSPLANE=50.00
		FIELD_TYPE=RECTANGULAR
		GANTRY=0.00
		GANTRY_UPRIGHT_POSITION=0
		GANTRY_ROTATION=CW
		COLL_ANGLE=90.00
		SCAN_DEVICE=OCTAVIUS_1600_XDR
		ELECTROMETER=DETECTOR_INTERFACE
		ELECTROMETER_SN=5987
		DETECTOR=OCTAVIUS_1600_XDR
		DETECTOR_SN=191760
		FILTER=FF
		SCAN_CURVETYPE=CROSSPLANE_PROFILE
		SCAN_DEPTH=0.00
		SCAN_OFFAXIS_INPLANE=-45.00
		SCAN_ANGLE=0.00
		SCAN_DIAGONAL=NOT_DIAGONAL
		MEAS_PRESET=TIME_PRESET
		MEAS_TIME=26.400
		MEAS_UNIT=GY
		PRESSURE=995.30
		TEMPERATURE=19.10
		NORM_TEMPERATURE=20.00
		CORRECTION_FACTOR=1.1270
		CALIBRATION_FILE=C:\Users\Public\Documents\PTW\Common Files\Calibration Files\230554201_OCTAVIUS1600XDR_191760.cal
		CORRECTIONS=AIR_DENSITY_CORR;FACTOR_CORR;
		BEGIN_DATA
			-75.00		28.358E-06		#1515
			-70.00		40.675E-06		#1484
			-65.00		45.233E-06		#1453
			-60.00		-114.79E-06		#1422
			-55.00		73.839E-06		#1391
			-50.00		220.30E-06		#1360
			-45.00		444.41E-06		#1329
			-40.00		493.93E-06		#1298
			-35.00		1.0537E-03		#1267
			-30.00		1.6459E-03		#1209
			-25.00		1.8285E-03		#1137
			-20.00		1.8530E-03		#1065
			-15.00		2.1993E-03		#993
			-10.00		2.0816E-03		#921
			-5.00		2.1619E-03		#849
			0.00		2.3935E-03		#777
			5.00		2.2949E-03		#705
			10.00		2.1622E-03		#633
			15.00		1.9077E-03		#561
			20.00		2.1178E-03		#489
			25.00		2.1076E-03		#417
			30.00		1.9516E-03		#345
			35.00		1.1138E-03		#273
			40.00		556.58E-06		#242
			45.00		445.12E-06		#211
			50.00		152.76E-06		#180
			55.00		241.12E-06		#149
			60.00		119.77E-06		#118
			65.00		253.35E-06		#87
			70.00		159.08E-06		#56
			75.00		-107.25E-06		#25
		END_DATA
	END_SCAN  7
	BEGIN_SCAN  8
		TASK_NAME=DOSE
		GROUP_NAME=LR_26.4
		PROGRAM=BeamAdjust 2.3.0.25
		COMMENT=G000, E221_c-dhex3.6_4
		MEAS_DATE=08-Jun-2024 21:59:53
		LINAC=HIT
		MODALITY=P
		INPLANE_AXIS_DIR=TARGET_GUN
		CROSSPLANE_AXIS_DIR=LEFT_RIGHT
		DEPTH_AXIS_DIR=UP_DOWN
		ENERGY=0.00
		SSD=0.00
		FIELD_INPLANE=50.00
		FIELD_CROSSPLANE=50.00
		FIELD_TYPE=RECTANGULAR
		GANTRY=0.00
		GANTRY_UPRIGHT_POSITION=0
		GANTRY_ROTATION=CW
		COLL_ANGLE=90.00
		SCAN_DEVICE=OCTAVIUS_1600_XDR
		ELECTROMETER=DETECTOR_INTERFACE
		ELECTROMETER_SN=5987
		DETECTOR=OCTAVIUS_1600_XDR
		DETECTOR_SN=191760
		FILTER=FF
		SCAN_CURVETYPE=CROSSPLANE_PROFILE
		SCAN_DEPTH=0.00
		SCAN_OFFAXIS_INPLANE=-40.00
		SCAN_ANGLE=0.00
		SCAN_DIAGONAL=NOT_DIAGONAL
		MEAS_PRESET=TIME_PRESET
		MEAS_TIME=26.400
		MEAS_UNIT=GY
		PRESSURE=995.30
		TEMPERATURE=19.10
		NORM_TEMPERATURE=20.00
		CORRECTION_FACTOR=1.1270
		CALIBRATION_FILE=C:\Users\Public\Documents\PTW\Common Files\Calibration Files\230554201_OCTAVIUS1600XDR_191760.cal
		CORRECTIONS=AIR_DENSITY_CORR;FACTOR_CORR;
		BEGIN_DATA
			-75.00		86.746E-06		#1514
			-70.00		61.391E-06		#1483
			-65.00		130.16E-06		#1452
			-60.00		119.22E-06		#1421
			-55.00		325.88E-06		#1390
			-50.00		539.81E-06		#1359
			-45.00		947.91E-06		#1328
			-40.00		3.7189E-03		#1297
			-35.00		10.554E-03		#1266
			-30.00		13.807E-03		#1208
			-25.00		14.389E-03		#1136
			-20.00		14.588E-03		#1064
			-15.00		15.307E-03		#992
			-10.00		15.363E-03		#920
			-5.00		15.736E-03		#848
			0.00		15.703E-03		#776
			5.00		16.259E-03		#704
			10.00		16.292E-03		#632
			15.00		15.986E-03		#560
			20.00		16.638E-03		#488
			25.00		16.903E-03		#416
			30.00		15.238E-03		#344
			35.00		8.3077E-03		#272
			40.00		1.7448E-03		#241
			45.00		443.07E-06		#210
			50.00		83.189E-06		#179
			55.00		234.07E-06		#148
			60.00		-14.386E-06		#117
			65.00		336.22E-06		#86
			70.00		117.80E-06		#55
			75.00		286.50E-06		#24
		END_DATA
	END_SCAN  8
	BEGIN_SCAN  9
		TASK_NAME=DOSE
		GROUP_NAME=LR_26.4
		PROGRAM=BeamAdjust 2.3.0.25
		COMMENT=G000, E221_c-dhex3.6_4
		MEAS_DATE=08-Jun-2024 21:59:53
		LINAC=HIT
		MODALITY=P
		INPLANE_AXIS_DIR=TARGET_GUN
		CROSSPLANE_AXIS_DIR=LEFT_RIGHT
		DEPTH_AXIS_DIR=UP_DOWN
		ENERGY=0.00
		SSD=0.00
		FIELD_INPLANE=50.00
		FIELD_CROSSPLANE=50.00
		FIELD_TYPE=RECTANGULAR
		GANTRY=0.00
		GANTRY_UPRIGHT_POSITION=0
		GANTRY_ROTATION=CW
		COLL_ANGLE=90.00
		SCAN_DEVICE=OCTAVIUS_1600_XDR
		ELECTROMETER=DETECTOR_INTERFACE
		ELECTROMETER_SN=5987
		DETECTOR=OCTAVIUS_1600_XDR
		DETECTOR_SN=191760
		FILTER=FF
		SCAN_CURVETYPE=CROSSPLANE_PROFILE
		SCAN_DEPTH=0.00
		SCAN_OFFAXIS_INPLANE=-35.00
		SCAN_ANGLE=0.00
		SCAN_DIAGONAL=NOT_DIAGONAL
		MEAS_PRESET=TIME_PRESET
		MEAS_TIME=26.400
		MEAS_UNIT=GY
		PRESSURE=995.30
		TEMPERATURE=19.10
		NORM_TEMPERATURE=20.00
		CORRECTION_FACTOR=1.1270
		CALIBRATION_FILE=C:\Users\Public\Documents\PTW\Common Files\Calibration Files\230554201_OCTAVIUS1600XDR_191760.cal
		CORRECTIONS=AIR_DENSITY_CORR;FACTOR_CORR;
		BEGIN_DATA
			-75.00		204.61E-06		#1513
			-70.00		-65.219E-06		#1482
			-65.00		191.06E-06		#1451
			-60.00		139.61E-06		#1420
			-55.00		306.30E-06		#1389
			-50.00		379.39E-06		#1358
			-45.00		1.8443E-03		#1327
			-40.00		14.031E-03		#1296
			-35.00		45.202E-03		#1265
			-30.00		56.132E-03		#1207
			-25.00		57.610E-03		#1135
			-20.00		58.099E-03		#1063
			-15.00		58.496E-03		#991
			-10.00		58.612E-03		#919
			-5.00		58.951E-03		#847
			0.00		59.387E-03		#775
			5.00		59.391E-03		#703
			10.00		60.161E-03		#631
			15.00		59.808E-03		#559
			20.00		60.784E-03		#487
			25.00		61.155E-03		#415
			30.00		56.285E-03		#343
			35.00		27.742E-03		#271
			40.00		4.1469E-03		#240
			45.00		416.45E-06		#209
			50.00		-96.908E-06		#178
			55.00		188.11E-06		#147
			60.00		102.22E-06		#116
			65.00		2.5343E-06		#85
			70.00		40.528E-06		#54
			75.00		-6.4829E-06		#23
		END_DATA
	END_SCAN  9
	BEGIN_SCAN  10
		TASK_NAME=DOSE
		GROUP_NAME=LR_26.4
		PROGRAM=BeamAdjust 2.3.0.25
		COMMENT=G000, E221_c-dhex3.6_4
		MEAS_DATE=08-Jun-2024 21:59:53
		LINAC=HIT
		MODALITY=P
		INPLANE_AXIS_DIR=TARGET_GUN
		CROSSPLANE_AXIS_DIR=LEFT_RIGHT
		DEPTH_AXIS_DIR=UP_DOWN
		ENERGY=0.00
		SSD=0.00
		FIELD_INPLANE=50.00
		FIELD_CROSSPLANE=50.00
		FIELD_TYPE=RECTANGULAR
		GANTRY=0.00
		GANTRY_UPRIGHT_POSITION=0
		GANTRY_ROTATION=CW
		COLL_ANGLE=90.00
		SCAN_DEVICE=OCTAVIUS_1600_XDR
		ELECTROMETER=DETECTOR_INTERFACE
		ELECTROMETER_SN=5987
		DETECTOR=OCTAVIUS_1600_XDR
		DETECTOR_SN=191760
		FILTER=FF
		SCAN_CURVETYPE=CROSSPLANE_PROFILE
		SCAN_DEPTH=0.00
		SCAN_OFFAXIS_INPLANE=-32.50
		SCAN_ANGLE=0.00
		SCAN_DIAGONAL=NOT_DIAGONAL
		MEAS_PRESET=TIME_PRESET
		MEAS_TIME=26.400
		MEAS_UNIT=GY
		PRESSURE=995.30
		TEMPERATURE=19.10
		NORM_TEMPERATURE=20.00
		CORRECTION_FACTOR=1.1270
		CALIBRATION_FILE=C:\Users\Public\Documents\PTW\Common Files\Calibration Files\230554201_OCTAVIUS1600XDR_191760.cal
		CORRECTIONS=AIR_DENSITY_CORR;FACTOR_CORR;
		BEGIN_DATA
			-32.50		68.384E-03		#1242
			-30.00		72.092E-03		#1206
			-27.50		73.260E-03		#1170
			-25.00		73.675E-03		#1134
			-22.50		73.429E-03		#1098
			-20.00		73.451E-03		#1062
			-17.50		73.511E-03		#1026
			-15.00		73.758E-03		#990
			-12.50		73.903E-03		#954
			-10.00		73.956E-03		#918
			-7.50		74.060E-03		#882
			-5.00		74.056E-03		#846
			-2.50		74.469E-03		#810
			0.00		74.475E-03		#774
			2.50		73.948E-03		#738
			5.00		74.859E-03		#702
			7.50		74.071E-03		#666
			10.00		75.028E-03		#630
			12.50		75.082E-03		#594
			15.00		74.831E-03		#558
			17.50		75.613E-03		#522
			20.00		75.283E-03		#486
			22.50		75.633E-03		#450
			25.00		75.217E-03		#414
			27.50		73.778E-03		#378
			30.00		69.098E-03		#342
			32.50		54.641E-03		#306
		END_DATA
	END_SCAN  10
	BEGIN_SCAN  11
		TASK_NAME=DOSE
		GROUP_NAME=LR_26.4
		PROGRAM=BeamAdjust 2.3.0.25
		COMMENT=G000, E221_c-dhex3.6_4
		MEAS_DATE=08-Jun-2024 21:59:53
		LINAC=HIT
		MODALITY=P
		INPLANE_AXIS_DIR=TARGET_GUN
		CROSSPLANE_AXIS_DIR=LEFT_RIGHT
		DEPTH_AXIS_DIR=UP_DOWN
		ENERGY=0.00
		SSD=0.00
		FIELD_INPLANE=50.00
		FIELD_CROSSPLANE=50.00
		FIELD_TYPE=RECTANGULAR
		GANTRY=0.00
		GANTRY_UPRIGHT_POSITION=0
		GANTRY_ROTATION=CW
		COLL_ANGLE=90.00
		SCAN_DEVICE=OCTAVIUS_1600_XDR
		ELECTROMETER=DETECTOR_INTERFACE
		ELECTROMETER_SN=5987
		DETECTOR=OCTAVIUS_1600_XDR
		DETECTOR_SN=191760
		FILTER=FF
		SCAN_CURVETYPE=CROSSPLANE_PROFILE
		SCAN_DEPTH=0.00
		SCAN_OFFAXIS_INPLANE=-30.00
		SCAN_ANGLE=0.00
		SCAN_DIAGONAL=NOT_DIAGONAL
		MEAS_PRESET=TIME_PRESET
		MEAS_TIME=26.400
		MEAS_UNIT=GY
		PRESSURE=995.30
		TEMPERATURE=19.10
		NORM_TEMPERATURE=20.00
		CORRECTION_FACTOR=1.1270
		CALIBRATION_FILE=C:\Users\Public\Documents\PTW\Common Files\Calibration Files\230554201_OCTAVIUS1600XDR_191760.cal
		CORRECTIONS=AIR_DENSITY_CORR;FACTOR_CORR;
		BEGIN_DATA
			-75.00		33.379E-06		#1512
			-70.00		133.78E-06		#1481
			-65.00		47.380E-06		#1450
			-60.00		5.1460E-06		#1419
			-55.00		202.98E-06		#1388
			-50.00		560.04E-06		#1357
			-45.00		2.2606E-03		#1326
			-40.00		20.520E-03		#1295
			-35.00		63.985E-03		#1264
			-32.50		75.141E-03		#1241
			-30.00		78.671E-03		#1205
			-27.50		79.249E-03		#1169
			-25.00		79.881E-03		#1133
			-22.50		79.741E-03		#1097
			-20.00		79.649E-03		#1061
			-17.50		80.203E-03		#1025
			-15.00		80.023E-03		#989
			-12.50		80.294E-03		#953
			-10.00		79.831E-03		#917
			-7.50		80.432E-03		#881
			-5.00		80.233E-03		#845
			-2.50		80.362E-03		#809
			0.00		80.413E-03		#773
			2.50		80.870E-03		#737
			5.00		80.150E-03		#701
			7.50		80.913E-03		#665
			10.00		80.356E-03		#629
			12.50		81.100E-03		#593
			15.00		80.749E-03		#557
			17.50		81.096E-03		#521
			20.00		81.067E-03		#485
			22.50		81.000E-03		#449
			25.00		80.687E-03		#413
			27.50		79.145E-03		#377
			30.00		73.178E-03		#341
			32.50		58.597E-03		#305
			35.00		35.391E-03		#270
			40.00		5.6838E-03		#239
			45.00		709.93E-06		#208
			50.00		303.30E-06		#177
			55.00		130.62E-06		#146
			60.00		94.116E-06		#115
			65.00		144.56E-06		#84
			70.00		319.55E-06		#53
			75.00		-341.91E-06		#22
		END_DATA
	END_SCAN  11
	BEGIN_SCAN  12
		TASK_NAME=DOSE
		GROUP_NAME=LR_26.4
		PROGRAM=BeamAdjust 2.3.0.25
		COMMENT=G000, E221_c-dhex3.6_4
		MEAS_DATE=08-Jun-2024 21:59:53
		LINAC=HIT
		MODALITY=P
		INPLANE_AXIS_DIR=TARGET_GUN
		CROSSPLANE_AXIS_DIR=LEFT_RIGHT
		DEPTH_AXIS_DIR=UP_DOWN
		ENERGY=0.00
		SSD=0.00
		FIELD_INPLANE=50.00
		FIELD_CROSSPLANE=50.00
		FIELD_TYPE=RECTANGULAR
		GANTRY=0.00
		GANTRY_UPRIGHT_POSITION=0
		GANTRY_ROTATION=CW
		COLL_ANGLE=90.00
		SCAN_DEVICE=OCTAVIUS_1600_XDR
		ELECTROMETER=DETECTOR_INTERFACE
		ELECTROMETER_SN=5987
		DETECTOR=OCTAVIUS_1600_XDR
		DETECTOR_SN=191760
		FILTER=FF
		SCAN_CURVETYPE=CROSSPLANE_PROFILE
		SCAN_DEPTH=0.00
		SCAN_OFFAXIS_INPLANE=-27.50
		SCAN_ANGLE=0.00
		SCAN_DIAGONAL=NOT_DIAGONAL
		MEAS_PRESET=TIME_PRESET
		MEAS_TIME=26.400
		MEAS_UNIT=GY
		PRESSURE=995.30
		TEMPERATURE=19.10
		NORM_TEMPERATURE=20.00
		CORRECTION_FACTOR=1.1270
		CALIBRATION_FILE=C:\Users\Public\Documents\PTW\Common Files\Calibration Files\230554201_OCTAVIUS1600XDR_191760.cal
		CORRECTIONS=AIR_DENSITY_CORR;FACTOR_CORR;
		BEGIN_DATA
			-32.50		76.659E-03		#1240
			-30.00		80.818E-03		#1204
			-27.50		81.153E-03		#1168
			-25.00		81.929E-03		#1132
			-22.50		81.855E-03		#1096
			-20.00		81.458E-03		#1060
			-17.50		81.061E-03		#1024
			-15.00		82.337E-03		#988
			-12.50		82.124E-03		#952
			-10.00		82.580E-03		#916
			-7.50		81.999E-03		#880
			-5.00		82.195E-03		#844
			-2.50		82.057E-03		#808
			0.00		82.311E-03		#772
			2.50		82.550E-03		#736
			5.00		82.436E-03		#700
			7.50		82.824E-03		#664
			10.00		82.598E-03		#628
			12.50		82.562E-03		#592
			15.00		82.367E-03		#556
			17.50		82.759E-03		#520
			20.00		82.703E-03		#484
			22.50		82.372E-03		#448
			25.00		81.953E-03		#412
			27.50		80.497E-03		#376
			30.00		74.415E-03		#340
			32.50		59.137E-03		#304
		END_DATA
	END_SCAN  12
	BEGIN_SCAN  13
		TASK_NAME=DOSE
		GROUP_NAME=LR_26.4
		PROGRAM=BeamAdjust 2.3.0.25
		COMMENT=G000, E221_c-dhex3.6_4
		MEAS_DATE=08-Jun-2024 21:59:53
		LINAC=HIT
		MODALITY=P
		INPLANE_AXIS_DIR=TARGET_GUN
		CROSSPLANE_AXIS_DIR=LEFT_RIGHT
		DEPTH_AXIS_DIR=UP_DOWN
		ENERGY=0.00
		SSD=0.00
		FIELD_INPLANE=50.00
		FIELD_CROSSPLANE=50.00
		FIELD_TYPE=RECTANGULAR
		GANTRY=0.00
		GANTRY_UPRIGHT_POSITION=0
		GANTRY_ROTATION=CW
		COLL_ANGLE=90.00
		SCAN_DEVICE=OCTAVIUS_1600_XDR
		ELECTROMETER=DETECTOR_INTERFACE
		ELECTROMETER_SN=5987
		DETECTOR=OCTAVIUS_1600_XDR
		DETECTOR_SN=191760
		FILTER=FF
		SCAN_CURVETYPE=CROSSPLANE_PROFILE
		SCAN_DEPTH=0.00
		SCAN_OFFAXIS_INPLANE=-25.00
		SCAN_ANGLE=0.00
		SCAN_DIAGONAL=NOT_DIAGONAL
		MEAS_PRESET=TIME_PRESET
		MEAS_TIME=26.400
		MEAS_UNIT=GY
		PRESSURE=995.30
		TEMPERATURE=19.10
		NORM_TEMPERATURE=20.00
		CORRECTION_FACTOR=1.1270
		CALIBRATION_FILE=C:\Users\Public\Documents\PTW\Common Files\Calibration Files\230554201_OCTAVIUS1600XDR_191760.cal
		CORRECTIONS=AIR_DENSITY_CORR;FACTOR_CORR;
		BEGIN_DATA
			-75.00		73.311E-06		#1511
			-70.00		220.55E-06		#1480
			-65.00		95.534E-06		#1449
			-60.00		249.31E-06		#1418
			-55.00		87.600E-06		#1387
			-50.00		727.26E-06		#1356
			-45.00		2.7638E-03		#1325
			-40.00		21.315E-03		#1294
			-35.00		65.934E-03		#1263
			-32.50		77.257E-03		#1239
			-30.00		81.153E-03		#1203
			-27.50		81.690E-03		#1167
			-25.00		81.926E-03		#1131
			-22.50		82.026E-03		#1095
			-20.00		81.933E-03		#1059
			-17.50		82.704E-03		#1023
			-15.00		82.312E-03		#987
			-12.50		83.206E-03		#951
			-10.00		82.683E-03		#915
			-7.50		82.746E-03		#879
			-5.00		83.132E-03		#843
			-2.50		82.492E-03		#807
			0.00		82.223E-03		#771
			2.50		83.011E-03		#735
			5.00		82.351E-03		#699
			7.50		82.738E-03		#663
			10.00		82.364E-03		#627
			12.50		82.830E-03		#591
			15.00		82.829E-03		#555
			17.50		83.060E-03		#519
			20.00		83.305E-03		#483
			22.50		82.570E-03		#447
			25.00		82.081E-03		#411
			27.50		79.989E-03		#375
			30.00		74.830E-03		#339
			32.50		59.572E-03		#303
			35.00		36.507E-03		#269
			40.00		5.5365E-03		#238
			45.00		1.2064E-03		#207
			50.00		346.47E-06		#176
			55.00		467.24E-06		#145
			60.00		150.42E-06		#114
			65.00		236.63E-06		#83
			70.00		119.44E-06		#52
			75.00		-6.5832E-06		#21
		END_DATA
	END_SCAN  13
	BEGIN_SCAN  14
		TASK_NAME=DOSE
		GROUP_NAME=LR_26.4
		PROGRAM=BeamAdjust 2.3.0.25
		COMMENT=G000, E221_c-dhex3.6_4
		MEAS_DATE=08-Jun-2024 21:59:53
		LINAC=HIT
		MODALITY=P
		INPLANE_AXIS_DIR=TARGET_GUN
		CROSSPLANE_AXIS_DIR=LEFT_RIGHT
		DEPTH_AXIS_DIR=UP_DOWN
		ENERGY=0.00
		SSD=0.00
		FIELD_INPLANE=50.00
		FIELD_CROSSPLANE=50.00
		FIELD_TYPE=RECTANGULAR
		GANTRY=0.00
		GANTRY_UPRIGHT_POSITION=0
		GANTRY_ROTATION=CW
		COLL_ANGLE=90.00
		SCAN_DEVICE=OCTAVIUS_1600_XDR
		ELECTROMETER=DETECTOR_INTERFACE
		ELECTROMETER_SN=5987
		DETECTOR=OCTAVIUS_1600_XDR
		DETECTOR_SN=191760
		FILTER=FF
		SCAN_CURVETYPE=CROSSPLANE_PROFILE
		SCAN_DEPTH=0.00
		SCAN_OFFAXIS_INPLANE=-22.50
		SCAN_ANGLE=0.00
		SCAN_DIAGONAL=NOT_DIAGONAL
		MEAS_PRESET=TIME_PRESET
		MEAS_TIME=26.400
		MEAS_UNIT=GY
		PRESSURE=995.30
		TEMPERATURE=19.10
		NORM_TEMPERATURE=20.00
		CORRECTION_FACTOR=1.1270
		CALIBRATION_FILE=C:\Users\Public\Documents\PTW\Common Files\Calibration Files\230554201_OCTAVIUS1600XDR_191760.cal
		CORRECTIONS=AIR_DENSITY_CORR;FACTOR_CORR;
		BEGIN_DATA
			-32.50		76.545E-03		#1238
			-30.00		80.733E-03		#1202
			-27.50		81.357E-03		#1166
			-25.00		81.887E-03		#1130
			-22.50		81.664E-03		#1094
			-20.00		82.038E-03		#1058
			-17.50		82.069E-03		#1022
			-15.00		81.892E-03		#986
			-12.50		82.222E-03		#950
			-10.00		82.885E-03		#914
			-7.50		82.235E-03		#878
			-5.00		82.493E-03		#842
			-2.50		82.526E-03		#806
			0.00		82.420E-03		#770
			2.50		82.683E-03		#734
			5.00		82.333E-03		#698
			7.50		82.571E-03		#662
			10.00		82.276E-03		#626
			12.50		82.499E-03		#590
			15.00		82.888E-03		#554
			17.50		82.707E-03		#518
			20.00		82.543E-03		#482
			22.50		82.448E-03		#446
			25.00		81.702E-03		#410
			27.50		80.189E-03		#374
			30.00		74.119E-03		#338
			32.50		59.087E-03		#302
		END_DATA
	END_SCAN  14
	BEGIN_SCAN  15
		TASK_NAME=DOSE
		GROUP_NAME=LR_26.4
		PROGRAM=BeamAdjust 2.3.0.25
		COMMENT=G000, E221_c-dhex3.6_4
		MEAS_DATE=08-Jun-2024 21:59:53
		LINAC=HIT
		MODALITY=P
		INPLANE_AXIS_DIR=TARGET_GUN
		CROSSPLANE_AXIS_DIR=LEFT_RIGHT
		DEPTH_AXIS_DIR=UP_DOWN
		ENERGY=0.00
		SSD=0.00
		FIELD_INPLANE=50.00
		FIELD_CROSSPLANE=50.00
		FIELD_TYPE=RECTANGULAR
		GANTRY=0.00
		GANTRY_UPRIGHT_POSITION=0
		GANTRY_ROTATION=CW
		COLL_ANGLE=90.00
		SCAN_DEVICE=OCTAVIUS_1600_XDR
		ELECTROMETER=DETECTOR_INTERFACE
		ELECTROMETER_SN=5987
		DETECTOR=OCTAVIUS_1600_XDR
		DETECTOR_SN=191760
		FILTER=FF
		SCAN_CURVETYPE=CROSSPLANE_PROFILE
		SCAN_DEPTH=0.00
		SCAN_OFFAXIS_INPLANE=-20.00
		SCAN_ANGLE=0.00
		SCAN_DIAGONAL=NOT_DIAGONAL
		MEAS_PRESET=TIME_PRESET
		MEAS_TIME=26.400
		MEAS_UNIT=GY
		PRESSURE=995.30
		TEMPERATURE=19.10
		NORM_TEMPERATURE=20.00
		CORRECTION_FACTOR=1.1270
		CALIBRATION_FILE=C:\Users\Public\Documents\PTW\Common Files\Calibration Files\230554201_OCTAVIUS1600XDR_191760.cal
		CORRECTIONS=AIR_DENSITY_CORR;FACTOR_CORR;
		BEGIN_DATA
			-75.00		63.120E-06		#1510
			-70.00		175.88E-06		#1479
			-65.00		169.58E-06		#1448
			-60.00		69.411E-06		#1417
			-55.00		306.40E-06		#1386
			-50.00		372.32E-06		#1355
			-45.00		2.6485E-03		#1324
			-40.00		21.170E-03		#1293
			-35.00		65.490E-03		#1262
			-32.50		76.249E-03		#1237
			-30.00		80.465E-03		#1201
			-27.50		81.202E-03		#1165
			-25.00		82.106E-03		#1129
			-22.50		81.955E-03		#1093
			-20.00		81.547E-03		#1057
			-17.50		81.830E-03		#1021
			-15.00		82.685E-03		#985
			-12.50		82.799E-03		#949
			-10.00		82.502E-03		#913
			-7.50		82.854E-03		#877
			-5.00		82.274E-03		#841
			-2.50		82.583E-03		#805
			0.00		82.170E-03		#769
			2.50		82.222E-03		#733
			5.00		82.356E-03		#697
			7.50		82.273E-03		#661
			10.00		82.487E-03		#625
			12.50		82.690E-03		#589
			15.00		82.721E-03		#553
			17.50		82.986E-03		#517
			20.00		83.117E-03		#481
			22.50		82.457E-03		#445
			25.00		82.094E-03		#409
			27.50		80.120E-03		#373
			30.00		74.254E-03		#337
			32.50		60.056E-03		#301
			35.00		36.812E-03		#268
			40.00		5.7931E-03		#237
			45.00		1.0125E-03		#206
			50.00		528.25E-06		#175
			55.00		303.88E-06		#144
			60.00		415.13E-06		#113
			65.00		19.319E-06		#82
			70.00		-140.45E-06		#51
			75.00		121.45E-06		#20
		END_DATA
	END_SCAN  15
	BEGIN_SCAN  16
		TASK_NAME=DOSE
		GROUP_NAME=LR_26.4
