BEGIN_SCAN_DATA
	FORMAT=CC-Export V1.9                  
	FILE_CREATION_DATE=08-Jun-2024 21:52:55
	LAST_MODIFIED=08-Jun-2024 21:52:55
	BEGIN_SCAN  1
		TASK_NAME=DOSE
		GROUP_NAME=LR_33.6
		PROGRAM=BeamAdjust 2.3.0.25
		COMMENT=G000, E221_c-dhex3.6_4
		MEAS_DATE=08-Jun-2024 21:52:49
		LINAC=HIT
		MODALITY=P
		INPLANE_AXIS_DIR=TARGET_GUN
		CROSSPLANE_AXIS_DIR=LEFT_RIGHT
		DEPTH_AXIS_DIR=UP_DOWN
		ENERGY=0.00
		SSD=0.00
		FIELD_INPLANE=50.00
		FIELD_CROSSPLANE=50.00
		FIELD_TYPE=RECTANGULAR
		GANTRY=0.00
		GANTRY_UPRIGHT_POSITION=0
		GANTRY_ROTATION=CW
		COLL_ANGLE=90.00
		SCAN_DEVICE=OCTAVIUS_1600_XDR
		ELECTROMETER=DETECTOR_INTERFACE
		ELECTROMETER_SN=5987
		DETECTOR=OCTAVIUS_1600_XDR
		DETECTOR_SN=191760
		FILTER=FF
		SCAN_CURVETYPE=CROSSPLANE_PROFILE
		SCAN_DEPTH=0.00
		SCAN_OFFAXIS_INPLANE=-75.00
		SCAN_ANGLE=0.00
		SCAN_DIAGONAL=NOT_DIAGONAL
		MEAS_PRESET=TIME_PRESET
		MEAS_TIME=33.600
		MEAS_UNIT=GY
		PRESSURE=995.30
		TEMPERATURE=19.10
		NORM_TEMPERATURE=20.00
		CORRECTION_FACTOR=1.1270
		CALIBRATION_FILE=C:\Users\Public\Documents\PTW\Common Files\Calibration Files\230554201_OCTAVIUS1600XDR_191760.cal
		CORRECTIONS=AIR_DENSITY_CORR;FACTOR_CORR;
		BEGIN_DATA
			-75.00		184.88E-06		#1521
			-70.00		-71.429E-06		#1490
			-65.00		41.965E-06		#1459
			-60.00		-128.62E-06		#1428
			-55.00		-61.759E-06		#1397
			-50.00		-14.550E-06		#1366
			-45.00		-232.48E-06		#1335
			-40.00		-8.5060E-06		#1304
			-35.00		-140.88E-06		#1273
			-30.00		70.318E-06		#1215
			-25.00		342.93E-06		#1143
			-20.00		24.322E-06		#1071
			-15.00		195.81E-06		#999
			-10.00		122.32E-06		#927
			-5.00		244.39E-06		#855
			0.00		-63.380E-06		#783
			5.00		214.77E-06		#711
			10.00		-35.126E-06		#639
			15.00		6.5157E-06		#567
			20.00		23.598E-06		#495
			25.00		335.43E-06		#423
			30.00		-312.07E-06		#351
			35.00		412.20E-06		#279
			40.00		364.66E-06		#248
			45.00		-17.975E-06		#217
			50.00		-70.067E-06		#186
			55.00		158.77E-06		#155
			60.00		-194.54E-06		#124
			65.00		285.81E-06		#93
			70.00		80.699E-06		#62
			75.00		-254.09E-06		#31
		END_DATA
	END_SCAN  1
	BEGIN_SCAN  2
		TASK_NAME=DOSE
		GROUP_NAME=LR_33.6
		PROGRAM=BeamAdjust 2.3.0.25
		COMMENT=G000, E221_c-dhex3.6_4
		MEAS_DATE=08-Jun-2024 21:52:49
		LINAC=HIT
		MODALITY=P
		INPLANE_AXIS_DIR=TARGET_GUN
		CROSSPLANE_AXIS_DIR=LEFT_RIGHT
		DEPTH_AXIS_DIR=UP_DOWN
		ENERGY=0.00
		SSD=0.00
		FIELD_INPLANE=50.00
		FIELD_CROSSPLANE=50.00
		FIELD_TYPE=RECTANGULAR
		GANTRY=0.00
		GANTRY_UPRIGHT_POSITION=0
		GANTRY_ROTATION=CW
		COLL_ANGLE=90.00
		SCAN_DEVICE=OCTAVIUS_1600_XDR
		ELECTROMETER=DETECTOR_INTERFACE
		ELECTROMETER_SN=5987
		DETECTOR=OCTAVIUS_1600_XDR
		DETECTOR_SN=191760
		FILTER=FF
		SCAN_CURVETYPE=CROSSPLANE_PROFILE
		SCAN_DEPTH=0.00
		SCAN_OFFAXIS_INPLANE=-70.00
		SCAN_ANGLE=0.00
		SCAN_DIAGONAL=NOT_DIAGONAL
		MEAS_PRESET=TIME_PRESET
		MEAS_TIME=33.600
		MEAS_UNIT=GY
		PRESSURE=995.30
		TEMPERATURE=19.10
		NORM_TEMPERATURE=20.00
		CORRECTION_FACTOR=1.1270
		CALIBRATION_FILE=C:\Users\Public\Documents\PTW\Common Files\Calibration Files\230554201_OCTAVIUS1600XDR_191760.cal
		CORRECTIONS=AIR_DENSITY_CORR;FACTOR_CORR;
		BEGIN_DATA
			-75.00		149.93E-06		#1520
			-70.00		163.16E-06		#1489
			-65.00		16.129E-06		#1458
			-60.00		-6.5756E-06		#1427
			-55.00		33.517E-06		#1396
			-50.00		-22.159E-06		#1365
			-45.00		196.22E-06		#1334
			-40.00		52.926E-06		#1303
			-35.00		287.38E-06		#1272
			-30.00		211.43E-06		#1214
			-25.00		7.0863E-06		#1142
			-20.00		17.548E-06		#1070
			-15.00		-66.326E-06		#998
			-10.00		60.688E-06		#926
			-5.00		427.29E-06		#854
			0.00		80.093E-06		#782
			5.00		10.981E-06		#710
			10.00		95.181E-06		#638
			15.00		226.17E-06		#566
			20.00		-390.12E-06		#494
			25.00		215.23E-06		#422
			30.00		8.5586E-06		#350
			35.00		41.735E-06		#278
			40.00		-116.46E-06		#247
			45.00		-121.34E-06		#216
			50.00		389.34E-06		#185
			55.00		-2.8734E-06		#154
			60.00		262.51E-06		#123
			65.00		-131.16E-06		#92
			70.00		-77.651E-06		#61
			75.00		-54.188E-06		#30
		END_DATA
	END_SCAN  2
	BEGIN_SCAN  3
		TASK_NAME=DOSE
		GROUP_NAME=LR_33.6
		PROGRAM=BeamAdjust 2.3.0.25
		COMMENT=G000, E221_c-dhex3.6_4
		MEAS_DATE=08-Jun-2024 21:52:49
		LINAC=HIT
		MODALITY=P
		INPLANE_AXIS_DIR=TARGET_GUN
		CROSSPLANE_AXIS_DIR=LEFT_RIGHT
		DEPTH_AXIS_DIR=UP_DOWN
		ENERGY=0.00
		SSD=0.00
		FIELD_INPLANE=50.00
		FIELD_CROSSPLANE=50.00
		FIELD_TYPE=RECTANGULAR
		GANTRY=0.00
		GANTRY_UPRIGHT_POSITION=0
		GANTRY_ROTATION=CW
		COLL_ANGLE=90.00
		SCAN_DEVICE=OCTAVIUS_1600_XDR
		ELECTROMETER=DETECTOR_INTERFACE
		ELECTROMETER_SN=5987
		DETECTOR=OCTAVIUS_1600_XDR
		DETECTOR_SN=191760
		FILTER=FF
		SCAN_CURVETYPE=CROSSPLANE_PROFILE
		SCAN_DEPTH=0.00
		SCAN_OFFAXIS_INPLANE=-65.00
		SCAN_ANGLE=0.00
		SCAN_DIAGONAL=NOT_DIAGONAL
		MEAS_PRESET=TIME_PRESET
		MEAS_TIME=33.600
		MEAS_UNIT=GY
		PRESSURE=995.30
		TEMPERATURE=19.10
		NORM_TEMPERATURE=20.00
		CORRECTION_FACTOR=1.1270
		CALIBRATION_FILE=C:\Users\Public\Documents\PTW\Common Files\Calibration Files\230554201_OCTAVIUS1600XDR_191760.cal
		CORRECTIONS=AIR_DENSITY_CORR;FACTOR_CORR;
		BEGIN_DATA
			-75.00		-17.373E-06		#1519
			-70.00		-55.238E-06		#1488
			-65.00		49.960E-06		#1457
			-60.00		-12.417E-06		#1426
			-55.00		52.203E-06		#1395
			-50.00		219.11E-06		#1364
			-45.00		-39.013E-06		#1333
			-40.00		-119.64E-06		#1302
			-35.00		78.378E-06		#1271
			-30.00		11.092E-06		#1213
			-25.00		18.087E-06		#1141
			-20.00		-126.54E-06		#1069
			-15.00		111.78E-06		#997
			-10.00		205.91E-06		#925
			-5.00		74.280E-06		#853
			0.00		171.71E-06		#781
			5.00		160.23E-06		#709
			10.00		76.722E-06		#637
			15.00		38.977E-06		#565
			20.00		35.407E-06		#493
			25.00		156.23E-06		#421
			30.00		-22.382E-06		#349
			35.00		433.54E-06		#277
			40.00		-42.010E-06		#246
			45.00		173.53E-06		#215
			50.00		24.629E-06		#184
			55.00		41.410E-06		#153
			60.00		-132.77E-06		#122
			65.00		-71.202E-06		#91
			70.00		76.752E-06		#60
			75.00		-52.832E-06		#29
		END_DATA
	END_SCAN  3
	BEGIN_SCAN  4
		TASK_NAME=DOSE
		GROUP_NAME=LR_33.6
		PROGRAM=BeamAdjust 2.3.0.25
		COMMENT=G000, E221_c-dhex3.6_4
		MEAS_DATE=08-Jun-2024 21:52:49
		LINAC=HIT
		MODALITY=P
		INPLANE_AXIS_DIR=TARGET_GUN
		CROSSPLANE_AXIS_DIR=LEFT_RIGHT
		DEPTH_AXIS_DIR=UP_DOWN
		ENERGY=0.00
		SSD=0.00
		FIELD_INPLANE=50.00
		FIELD_CROSSPLANE=50.00
		FIELD_TYPE=RECTANGULAR
		GANTRY=0.00
		GANTRY_UPRIGHT_POSITION=0
		GANTRY_ROTATION=CW
		COLL_ANGLE=90.00
		SCAN_DEVICE=OCTAVIUS_1600_XDR
		ELECTROMETER=DETECTOR_INTERFACE
		ELECTROMETER_SN=5987
		DETECTOR=OCTAVIUS_1600_XDR
		DETECTOR_SN=191760
		FILTER=FF
		SCAN_CURVETYPE=CROSSPLANE_PROFILE
		SCAN_DEPTH=0.00
		SCAN_OFFAXIS_INPLANE=-60.00
		SCAN_ANGLE=0.00
		SCAN_DIAGONAL=NOT_DIAGONAL
		MEAS_PRESET=TIME_PRESET
		MEAS_TIME=33.600
		MEAS_UNIT=GY
		PRESSURE=995.30
		TEMPERATURE=19.10
		NORM_TEMPERATURE=20.00
		CORRECTION_FACTOR=1.1270
		CALIBRATION_FILE=C:\Users\Public\Documents\PTW\Common Files\Calibration Files\230554201_OCTAVIUS1600XDR_191760.cal
		CORRECTIONS=AIR_DENSITY_CORR;FACTOR_CORR;
		BEGIN_DATA
			-75.00		-60.939E-06		#1518
			-70.00		2.6626E-06		#1487
			-65.00		105.63E-06		#1456
			-60.00		25.968E-06		#1425
			-55.00		169.06E-06		#1394
			-50.00		42.271E-06		#1363
			-45.00		-5.4852E-06		#1332
			-40.00		445.74E-06		#1301
			-35.00		-78.094E-06		#1270
			-30.00		-79.678E-06		#1212
			-25.00		249.16E-06		#1140
			-20.00		158.76E-06		#1068
			-15.00		-122.93E-06		#996
			-10.00		205.43E-06		#924
			-5.00		302.34E-06		#852
			0.00		22.167E-06		#780
			5.00		191.44E-06		#708
			10.00		202.43E-06		#636
			15.00		159.97E-06		#564
			20.00		-107.23E-06		#492
			25.00		2.9259E-06		#420
			30.00		165.81E-06		#348
			35.00		104.58E-06		#276
			40.00		79.696E-06		#245
			45.00		178.14E-06		#214
			50.00		-122.53E-06		#183
			55.00		214.89E-06		#152
			60.00		104.84E-06		#121
			65.00		216.59E-06		#90
			70.00		124.58E-06		#59
			75.00		65.239E-06		#28
		END_DATA
	END_SCAN  4
	BEGIN_SCAN  5
		TASK_NAME=DOSE
		GROUP_NAME=LR_33.6
		PROGRAM=BeamAdjust 2.3.0.25
		COMMENT=G000, E221_c-dhex3.6_4
		MEAS_DATE=08-Jun-2024 21:52:49
		LINAC=HIT
		MODALITY=P
		INPLANE_AXIS_DIR=TARGET_GUN
		CROSSPLANE_AXIS_DIR=LEFT_RIGHT
		DEPTH_AXIS_DIR=UP_DOWN
		ENERGY=0.00
		SSD=0.00
		FIELD_INPLANE=50.00
		FIELD_CROSSPLANE=50.00
		FIELD_TYPE=RECTANGULAR
		GANTRY=0.00
		GANTRY_UPRIGHT_POSITION=0
		GANTRY_ROTATION=CW
		COLL_ANGLE=90.00
		SCAN_DEVICE=OCTAVIUS_1600_XDR
		ELECTROMETER=DETECTOR_INTERFACE
		ELECTROMETER_SN=5987
		DETECTOR=OCTAVIUS_1600_XDR
		DETECTOR_SN=191760
		FILTER=FF
		SCAN_CURVETYPE=CROSSPLANE_PROFILE
		SCAN_DEPTH=0.00
		SCAN_OFFAXIS_INPLANE=-55.00
		SCAN_ANGLE=0.00
		SCAN_DIAGONAL=NOT_DIAGONAL
		MEAS_PRESET=TIME_PRESET
		MEAS_TIME=33.600
		MEAS_UNIT=GY
		PRESSURE=995.30
		TEMPERATURE=19.10
		NORM_TEMPERATURE=20.00
		CORRECTION_FACTOR=1.1270
		CALIBRATION_FILE=C:\Users\Public\Documents\PTW\Common Files\Calibration Files\230554201_OCTAVIUS1600XDR_191760.cal
		CORRECTIONS=AIR_DENSITY_CORR;FACTOR_CORR;
		BEGIN_DATA
			-75.00		-4.9445E-06		#1517
			-70.00		170.18E-06		#1486
			-65.00		-19.732E-06		#1455
			-60.00		-8.0386E-06		#1424
			-55.00		-5.7387E-06		#1393
			-50.00		-80.679E-06		#1362
			-45.00		54.374E-06		#1331
			-40.00		31.212E-06		#1300
			-35.00		202.80E-06		#1269
			-30.00		263.50E-06		#1211
			-25.00		224.11E-06		#1139
			-20.00		487.06E-09		#1067
			-15.00		194.92E-06		#995
			-10.00		219.62E-06		#923
			-5.00		91.500E-06		#851
			0.00		-3.3793E-06		#779
			5.00		43.928E-06		#707
			10.00		152.11E-06		#635
			15.00		-85.799E-06		#563
			20.00		211.88E-06		#491
			25.00		-52.730E-06		#419
			30.00		-60.934E-06		#347
			35.00		-3.2962E-06		#275
			40.00		-213.72E-06		#244
			45.00		459.83E-06		#213
			50.00		19.162E-06		#182
			55.00		98.861E-06		#151
			60.00		-97.914E-06		#120
			65.00		-13.476E-06		#89
			70.00		-20.572E-06		#58
			75.00		-297.70E-06		#27
		END_DATA
	END_SCAN  5
	BEGIN_SCAN  6
		TASK_NAME=DOSE
		GROUP_NAME=LR_33.6
		PROGRAM=BeamAdjust 2.3.0.25
		COMMENT=G000, E221_c-dhex3.6_4
		MEAS_DATE=08-Jun-2024 21:52:49
		LINAC=HIT
		MODALITY=P
		INPLANE_AXIS_DIR=TARGET_GUN
		CROSSPLANE_AXIS_DIR=LEFT_RIGHT
		DEPTH_AXIS_DIR=UP_DOWN
		ENERGY=0.00
		SSD=0.00
		FIELD_INPLANE=50.00
		FIELD_CROSSPLANE=50.00
		FIELD_TYPE=RECTANGULAR
		GANTRY=0.00
		GANTRY_UPRIGHT_POSITION=0
		GANTRY_ROTATION=CW
		COLL_ANGLE=90.00
		SCAN_DEVICE=OCTAVIUS_1600_XDR
		ELECTROMETER=DETECTOR_INTERFACE
		ELECTROMETER_SN=5987
		DETECTOR=OCTAVIUS_1600_XDR
		DETECTOR_SN=191760
		FILTER=FF
		SCAN_CURVETYPE=CROSSPLANE_PROFILE
		SCAN_DEPTH=0.00
		SCAN_OFFAXIS_INPLANE=-50.00
		SCAN_ANGLE=0.00
		SCAN_DIAGONAL=NOT_DIAGONAL
		MEAS_PRESET=TIME_PRESET
		MEAS_TIME=33.600
		MEAS_UNIT=GY
		PRESSURE=995.30
		TEMPERATURE=19.10
		NORM_TEMPERATURE=20.00
		CORRECTION_FACTOR=1.1270
		CALIBRATION_FILE=C:\Users\Public\Documents\PTW\Common Files\Calibration Files\230554201_OCTAVIUS1600XDR_191760.cal
		CORRECTIONS=AIR_DENSITY_CORR;FACTOR_CORR;
		BEGIN_DATA
			-75.00		59.571E-06		#1516
			-70.00		-5.3480E-06		#1485
			-65.00		-29.088E-06		#1454
			-60.00		126.13E-06		#1423
			-55.00		-30.776E-06		#1392
			-50.00		40.485E-06		#1361
			-45.00		125.94E-06		#1330
			-40.00		216.76E-06		#1299
			-35.00		67.797E-06		#1268
			-30.00		244.65E-06		#1210
			-25.00		-46.672E-06		#1138
			-20.00		152.18E-06		#1066
			-15.00		117.48E-06		#994
			-10.00		95.460E-06		#922
			-5.00		298.62E-06		#850
			0.00		175.71E-06		#778
			5.00		221.85E-06		#706
			10.00		201.60E-06		#634
			15.00		170.24E-06		#562
			20.00		198.08E-06		#490
			25.00		37.393E-06		#418
			30.00		671.78E-09		#346
			35.00		176.65E-06		#274
			40.00		128.46E-06		#243
			45.00		-89.858E-06		#212
			50.00		70.321E-06		#181
			55.00		195.29E-06		#150
			60.00		-20.362E-06		#119
			65.00		138.79E-06		#88
			70.00		148.47E-06		#57
			75.00		-144.79E-06		#26
		END_DATA
	END_SCAN  6
	BEGIN_SCAN  7
		TASK_NAME=DOSE
		GROUP_NAME=LR_33.6
		PROGRAM=BeamAdjust 2.3.0.25
		COMMENT=G000, E221_c-dhex3.6_4
		MEAS_DATE=08-Jun-2024 21:52:49
		LINAC=HIT
		MODALITY=P
		INPLANE_AXIS_DIR=TARGET_GUN
		CROSSPLANE_AXIS_DIR=LEFT_RIGHT
		DEPTH_AXIS_DIR=UP_DOWN
		ENERGY=0.00
		SSD=0.00
		FIELD_INPLANE=50.00
		FIELD_CROSSPLANE=50.00
		FIELD_TYPE=RECTANGULAR
		GANTRY=0.00
		GANTRY_UPRIGHT_POSITION=0
		GANTRY_ROTATION=CW
		COLL_ANGLE=90.00
		SCAN_DEVICE=OCTAVIUS_1600_XDR
		ELECTROMETER=DETECTOR_INTERFACE
		ELECTROMETER_SN=5987
		DETECTOR=OCTAVIUS_1600_XDR
		DETECTOR_SN=191760
		FILTER=FF
		SCAN_CURVETYPE=CROSSPLANE_PROFILE
		SCAN_DEPTH=0.00
		SCAN_OFFAXIS_INPLANE=-45.00
		SCAN_ANGLE=0.00
		SCAN_DIAGONAL=NOT_DIAGONAL
		MEAS_PRESET=TIME_PRESET
		MEAS_TIME=33.600
		MEAS_UNIT=GY
		PRESSURE=995.30
		TEMPERATURE=19.10
		NORM_TEMPERATURE=20.00
		CORRECTION_FACTOR=1.1270
		CALIBRATION_FILE=C:\Users\Public\Documents\PTW\Common Files\Calibration Files\230554201_OCTAVIUS1600XDR_191760.cal
		CORRECTIONS=AIR_DENSITY_CORR;FACTOR_CORR;
		BEGIN_DATA
			-75.00		128.83E-06		#1515
			-70.00		-60.430E-06		#1484
			-65.00		-26.992E-06		#1453
			-60.00		-100.57E-06		#1422
			-55.00		151.14E-06		#1391
			-50.00		151.42E-06		#1360
			-45.00		27.664E-06		#1329
			-40.00		-37.963E-06		#1298
			-35.00		-275.83E-06		#1267
			-30.00		44.520E-06		#1209
			-25.00		72.761E-06		#1137
			-20.00		67.547E-06		#1065
			-15.00		339.45E-06		#993
			-10.00		342.57E-06		#921
			-5.00		379.80E-06		#849
			0.00		456.61E-06		#777
			5.00		320.11E-06		#705
			10.00		311.72E-06		#633
			15.00		55.583E-06		#561
			20.00		-45.643E-06		#489
			25.00		243.30E-06		#417
			30.00		278.82E-06		#345
			35.00		-18.218E-06		#273
			40.00		157.90E-06		#242
			45.00		232.23E-06		#211
			50.00		63.263E-06		#180
			55.00		-82.659E-06		#149
			60.00		182.47E-06		#118
			65.00		93.269E-06		#87
			70.00		87.985E-06		#56
			75.00		-68.743E-06		#25
		END_DATA
	END_SCAN  7
	BEGIN_SCAN  8
		TASK_NAME=DOSE
		GROUP_NAME=LR_33.6
		PROGRAM=BeamAdjust 2.3.0.25
		COMMENT=G000, E221_c-dhex3.6_4
		MEAS_DATE=08-Jun-2024 21:52:49
		LINAC=HIT
		MODALITY=P
		INPLANE_AXIS_DIR=TARGET_GUN
		CROSSPLANE_AXIS_DIR=LEFT_RIGHT
		DEPTH_AXIS_DIR=UP_DOWN
		ENERGY=0.00
		SSD=0.00
		FIELD_INPLANE=50.00
		FIELD_CROSSPLANE=50.00
		FIELD_TYPE=RECTANGULAR
		GANTRY=0.00
		GANTRY_UPRIGHT_POSITION=0
		GANTRY_ROTATION=CW
		COLL_ANGLE=90.00
		SCAN_DEVICE=OCTAVIUS_1600_XDR
		ELECTROMETER=DETECTOR_INTERFACE
		ELECTROMETER_SN=5987
		DETECTOR=OCTAVIUS_1600_XDR
		DETECTOR_SN=191760
		FILTER=FF
		SCAN_CURVETYPE=CROSSPLANE_PROFILE
		SCAN_DEPTH=0.00
		SCAN_OFFAXIS_INPLANE=-40.00
		SCAN_ANGLE=0.00
		SCAN_DIAGONAL=NOT_DIAGONAL
		MEAS_PRESET=TIME_PRESET
		MEAS_TIME=33.600
		MEAS_UNIT=GY
		PRESSURE=995.30
		TEMPERATURE=19.10
		NORM_TEMPERATURE=20.00
		CORRECTION_FACTOR=1.1270
		CALIBRATION_FILE=C:\Users\Public\Documents\PTW\Common Files\Calibration Files\230554201_OCTAVIUS1600XDR_191760.cal
		CORRECTIONS=AIR_DENSITY_CORR;FACTOR_CORR;
		BEGIN_DATA
			-75.00		56.529E-06		#1514
			-70.00		19.351E-06		#1483
			-65.00		-43.139E-06		#1452
			-60.00		-247.31E-06		#1421
			-55.00		270.46E-06		#1390
			-50.00		182.78E-06		#1359
			-45.00		81.875E-06		#1328
			-40.00		195.04E-06		#1297
			-35.00		359.93E-06		#1266
			-30.00		334.40E-06		#1208
			-25.00		566.11E-06		#1136
			-20.00		290.08E-06		#1064
			-15.00		554.16E-06		#992
			-10.00		307.11E-06		#920
			-5.00		555.24E-06		#848
			0.00		490.17E-06		#776
			5.00		642.16E-06		#704
			10.00		641.71E-06		#632
			15.00		259.69E-06		#560
			20.00		514.87E-06		#488
			25.00		298.97E-06		#416
			30.00		312.23E-06		#344
			35.00		170.22E-06		#272
			40.00		7.3938E-06		#241
			45.00		163.69E-06		#210
			50.00		-250.51E-06		#179
			55.00		284.90E-06		#148
			60.00		120.10E-06		#117
			65.00		256.77E-06		#86
			70.00		74.397E-06		#55
			75.00		399.09E-06		#24
		END_DATA
	END_SCAN  8
	BEGIN_SCAN  9
		TASK_NAME=DOSE
		GROUP_NAME=LR_33.6
		PROGRAM=BeamAdjust 2.3.0.25
		COMMENT=G000, E221_c-dhex3.6_4
		MEAS_DATE=08-Jun-2024 21:52:49
		LINAC=HIT
		MODALITY=P
		INPLANE_AXIS_DIR=TARGET_GUN
		CROSSPLANE_AXIS_DIR=LEFT_RIGHT
		DEPTH_AXIS_DIR=UP_DOWN
		ENERGY=0.00
		SSD=0.00
		FIELD_INPLANE=50.00
		FIELD_CROSSPLANE=50.00
		FIELD_TYPE=RECTANGULAR
		GANTRY=0.00
		GANTRY_UPRIGHT_POSITION=0
		GANTRY_ROTATION=CW
		COLL_ANGLE=90.00
		SCAN_DEVICE=OCTAVIUS_1600_XDR
		ELECTROMETER=DETECTOR_INTERFACE
		ELECTROMETER_SN=5987
		DETECTOR=OCTAVIUS_1600_XDR
		DETECTOR_SN=191760
		FILTER=FF
		SCAN_CURVETYPE=CROSSPLANE_PROFILE
		SCAN_DEPTH=0.00
		SCAN_OFFAXIS_INPLANE=-35.00
		SCAN_ANGLE=0.00
		SCAN_DIAGONAL=NOT_DIAGONAL
		MEAS_PRESET=TIME_PRESET
		MEAS_TIME=33.600
		MEAS_UNIT=GY
		PRESSURE=995.30
		TEMPERATURE=19.10
		NORM_TEMPERATURE=20.00
		CORRECTION_FACTOR=1.1270
		CALIBRATION_FILE=C:\Users\Public\Documents\PTW\Common Files\Calibration Files\230554201_OCTAVIUS1600XDR_191760.cal
		CORRECTIONS=AIR_DENSITY_CORR;FACTOR_CORR;
		BEGIN_DATA
			-75.00		177.63E-06		#1513
			-70.00		-150.67E-06		#1482
			-65.00		103.79E-06		#1451
			-60.00		177.81E-06		#1420
			-55.00		90.914E-06		#1389
			-50.00		106.38E-06		#1358
			-45.00		189.54E-06		#1327
			-40.00		383.61E-06		#1296
			-35.00		271.14E-06		#1265
			-30.00		292.61E-06		#1207
			-25.00		376.70E-06		#1135
			-20.00		984.93E-06		#1063
			-15.00		891.96E-06		#991
			-10.00		1.0285E-03		#919
			-5.00		1.3153E-03		#847
			0.00		1.4770E-03		#775
			5.00		1.1827E-03		#703
			10.00		1.3082E-03		#631
			15.00		703.97E-06		#559
			20.00		952.34E-06		#487
			25.00		596.87E-06		#415
			30.00		362.08E-06		#343
			35.00		208.48E-06		#271
			40.00		235.98E-06		#240
			45.00		-8.8010E-06		#209
			50.00		-95.209E-06		#178
			55.00		7.9166E-06		#147
			60.00		170.83E-06		#116
			65.00		-1.1402E-06		#85
			70.00		-2.2013E-06		#54
			75.00		80.128E-06		#23
		END_DATA
	END_SCAN  9
	BEGIN_SCAN  10
		TASK_NAME=DOSE
		GROUP_NAME=LR_33.6
		PROGRAM=BeamAdjust 2.3.0.25
		COMMENT=G000, E221_c-dhex3.6_4
		MEAS_DATE=08-Jun-2024 21:52:49
		LINAC=HIT
		MODALITY=P
		INPLANE_AXIS_DIR=TARGET_GUN
		CROSSPLANE_AXIS_DIR=LEFT_RIGHT
		DEPTH_AXIS_DIR=UP_DOWN
		ENERGY=0.00
		SSD=0.00
		FIELD_INPLANE=50.00
		FIELD_CROSSPLANE=50.00
		FIELD_TYPE=RECTANGULAR
		GANTRY=0.00
		GANTRY_UPRIGHT_POSITION=0
		GANTRY_ROTATION=CW
		COLL_ANGLE=90.00
		SCAN_DEVICE=OCTAVIUS_1600_XDR
		ELECTROMETER=DETECTOR_INTERFACE
		ELECTROMETER_SN=5987
		DETECTOR=OCTAVIUS_1600_XDR
		DETECTOR_SN=191760
		FILTER=FF
		SCAN_CURVETYPE=CROSSPLANE_PROFILE
		SCAN_DEPTH=0.00
		SCAN_OFFAXIS_INPLANE=-32.50
		SCAN_ANGLE=0.00
		SCAN_DIAGONAL=NOT_DIAGONAL
		MEAS_PRESET=TIME_PRESET
		MEAS_TIME=33.600
		MEAS_UNIT=GY
		PRESSURE=995.30
		TEMPERATURE=19.10
		NORM_TEMPERATURE=20.00
		CORRECTION_FACTOR=1.1270
		CALIBRATION_FILE=C:\Users\Public\Documents\PTW\Common Files\Calibration Files\230554201_OCTAVIUS1600XDR_191760.cal
		CORRECTIONS=AIR_DENSITY_CORR;FACTOR_CORR;
		BEGIN_DATA
			-32.50		595.37E-06		#1242
			-30.00		677.02E-06		#1206
			-27.50		874.20E-06		#1170
			-25.00		1.1590E-03		#1134
			-22.50		1.4524E-03		#1098
			-20.00		1.4600E-03		#1062
			-17.50		1.8990E-03		#1026
			-15.00		1.7690E-03		#990
			-12.50		1.8440E-03		#954
			-10.00		1.9403E-03		#918
			-7.50		1.6364E-03		#882
			-5.00		2.0391E-03		#846
			-2.50		1.9843E-03		#810
			0.00		2.1114E-03		#774
			2.50		2.1524E-03		#738
			5.00		2.0196E-03		#702
			7.50		1.9643E-03		#666
			10.00		1.9210E-03		#630
			12.50		1.7428E-03		#594
			15.00		1.7228E-03		#558
			17.50		1.7611E-03		#522
			20.00		1.4334E-03		#486
			22.50		1.0260E-03		#450
			25.00		1.0963E-03		#414
			27.50		972.86E-06		#378
			30.00		589.43E-06		#342
			32.50		470.22E-06		#306
		END_DATA
	END_SCAN  10
	BEGIN_SCAN  11
		TASK_NAME=DOSE
		GROUP_NAME=LR_33.6
		PROGRAM=BeamAdjust 2.3.0.25
		COMMENT=G000, E221_c-dhex3.6_4
		MEAS_DATE=08-Jun-2024 21:52:49
		LINAC=HIT
		MODALITY=P
		INPLANE_AXIS_DIR=TARGET_GUN
		CROSSPLANE_AXIS_DIR=LEFT_RIGHT
		DEPTH_AXIS_DIR=UP_DOWN
		ENERGY=0.00
		SSD=0.00
		FIELD_INPLANE=50.00
		FIELD_CROSSPLANE=50.00
		FIELD_TYPE=RECTANGULAR
		GANTRY=0.00
		GANTRY_UPRIGHT_POSITION=0
		GANTRY_ROTATION=CW
		COLL_ANGLE=90.00
		SCAN_DEVICE=OCTAVIUS_1600_XDR
		ELECTROMETER=DETECTOR_INTERFACE
		ELECTROMETER_SN=5987
		DETECTOR=OCTAVIUS_1600_XDR
		DETECTOR_SN=191760
		FILTER=FF
		SCAN_CURVETYPE=CROSSPLANE_PROFILE
		SCAN_DEPTH=0.00
		SCAN_OFFAXIS_INPLANE=-30.00
		SCAN_ANGLE=0.00
		SCAN_DIAGONAL=NOT_DIAGONAL
		MEAS_PRESET=TIME_PRESET
		MEAS_TIME=33.600
		MEAS_UNIT=GY
		PRESSURE=995.30
		TEMPERATURE=19.10
		NORM_TEMPERATURE=20.00
		CORRECTION_FACTOR=1.1270
		CALIBRATION_FILE=C:\Users\Public\Documents\PTW\Common Files\Calibration Files\230554201_OCTAVIUS1600XDR_191760.cal
		CORRECTIONS=AIR_DENSITY_CORR;FACTOR_CORR;
		BEGIN_DATA
			-75.00		-30.940E-06		#1512
			-70.00		113.44E-06		#1481
			-65.00		-30.619E-06		#1450
			-60.00		-35.581E-06		#1419
			-55.00		101.88E-06		#1388
			-50.00		14.244E-06		#1357
			-45.00		38.415E-06		#1326
			-40.00		363.70E-06		#1295
			-35.00		580.59E-06		#1264
			-32.50		554.96E-06		#1241
			-30.00		1.2160E-03		#1205
			-27.50		1.9197E-03		#1169
			-25.00		3.4793E-03		#1133
			-22.50		4.3654E-03		#1097
			-20.00		5.3315E-03		#1061
			-17.50		5.8789E-03		#1025
			-15.00		6.0000E-03		#989
			-12.50		6.0423E-03		#953
			-10.00		5.9786E-03		#917
			-7.50		6.1482E-03		#881
			-5.00		6.1476E-03		#845
			-2.50		6.5377E-03		#809
			0.00		6.2229E-03		#773
			2.50		6.3136E-03		#737
			5.00		6.6661E-03		#701
			7.50		6.2496E-03		#665
			10.00		6.4456E-03		#629
			12.50		6.7595E-03		#593
			15.00		6.2122E-03		#557
			17.50		6.3029E-03		#521
			20.00		5.4571E-03		#485
			22.50		4.2001E-03		#449
			25.00		2.1939E-03		#413
			27.50		1.5852E-03		#377
			30.00		826.03E-06		#341
			32.50		578.90E-06		#305
			35.00		450.89E-06		#270
			40.00		499.33E-06		#239
			45.00		-8.7355E-06		#208
			50.00		18.932E-06		#177
			55.00		61.266E-06		#146
			60.00		140.56E-06		#115
			65.00		170.22E-06		#84
			70.00		47.432E-06		#53
			75.00		-303.16E-06		#22
		END_DATA
	END_SCAN  11
	BEGIN_SCAN  12
		TASK_NAME=DOSE
		GROUP_NAME=LR_33.6
		PROGRAM=BeamAdjust 2.3.0.25
		COMMENT=G000, E221_c-dhex3.6_4
		MEAS_DATE=08-Jun-2024 21:52:49
		LINAC=HIT
		MODALITY=P
		INPLANE_AXIS_DIR=TARGET_GUN
		CROSSPLANE_AXIS_DIR=LEFT_RIGHT
		DEPTH_AXIS_DIR=UP_DOWN
		ENERGY=0.00
		SSD=0.00
		FIELD_INPLANE=50.00
		FIELD_CROSSPLANE=50.00
		FIELD_TYPE=RECTANGULAR
		GANTRY=0.00
		GANTRY_UPRIGHT_POSITION=0
		GANTRY_ROTATION=CW
		COLL_ANGLE=90.00
		SCAN_DEVICE=OCTAVIUS_1600_XDR
		ELECTROMETER=DETECTOR_INTERFACE
		ELECTROMETER_SN=5987
		DETECTOR=OCTAVIUS_1600_XDR
		DETECTOR_SN=191760
		FILTER=FF
		SCAN_CURVETYPE=CROSSPLANE_PROFILE
		SCAN_DEPTH=0.00
		SCAN_OFFAXIS_INPLANE=-27.50
		SCAN_ANGLE=0.00
		SCAN_DIAGONAL=NOT_DIAGONAL
		MEAS_PRESET=TIME_PRESET
		MEAS_TIME=33.600
		MEAS_UNIT=GY
		PRESSURE=995.30
		TEMPERATURE=19.10
		NORM_TEMPERATURE=20.00
		CORRECTION_FACTOR=1.1270
		CALIBRATION_FILE=C:\Users\Public\Documents\PTW\Common Files\Calibration Files\230554201_OCTAVIUS1600XDR_191760.cal
		CORRECTIONS=AIR_DENSITY_CORR;FACTOR_CORR;
		BEGIN_DATA
			-32.50		1.2263E-03		#1240
			-30.00		2.7978E-03		#1204
			-27.50		6.5014E-03		#1168
			-25.00		12.590E-03		#1132
			-22.50		18.515E-03		#1096
			-20.00		21.958E-03		#1060
			-17.50		22.982E-03		#1024
			-15.00		24.019E-03		#988
			-12.50		24.050E-03		#952
			-10.00		24.118E-03		#916
			-7.50		24.199E-03		#880
			-5.00		24.407E-03		#844
			-2.50		24.108E-03		#808
			0.00		24.397E-03		#772
			2.50		24.772E-03		#736
			5.00		24.681E-03		#700
			7.50		25.364E-03		#664
			10.00		25.297E-03		#628
			12.50		25.111E-03		#592
			15.00		24.700E-03		#556
			17.50		23.588E-03		#520
			20.00		20.380E-03		#484
			22.50		14.325E-03		#448
			25.00		7.9369E-03		#412
			27.50		3.0381E-03		#376
			30.00		1.2092E-03		#340
			32.50		746.97E-06		#304
		END_DATA
	END_SCAN  12
	BEGIN_SCAN  13
		TASK_NAME=DOSE
		GROUP_NAME=LR_33.6
		PROGRAM=BeamAdjust 2.3.0.25
		COMMENT=G000, E221_c-dhex3.6_4
		MEAS_DATE=08-Jun-2024 21:52:49
		LINAC=HIT
		MODALITY=P
		INPLANE_AXIS_DIR=TARGET_GUN
		CROSSPLANE_AXIS_DIR=LEFT_RIGHT
		DEPTH_AXIS_DIR=UP_DOWN
		ENERGY=0.00
		SSD=0.00
		FIELD_INPLANE=50.00
		FIELD_CROSSPLANE=50.00
		FIELD_TYPE=RECTANGULAR
		GANTRY=0.00
		GANTRY_UPRIGHT_POSITION=0
		GANTRY_ROTATION=CW
		COLL_ANGLE=90.00
		SCAN_DEVICE=OCTAVIUS_1600_XDR
		ELECTROMETER=DETECTOR_INTERFACE
		ELECTROMETER_SN=5987
		DETECTOR=OCTAVIUS_1600_XDR
		DETECTOR_SN=191760
		FILTER=FF
		SCAN_CURVETYPE=CROSSPLANE_PROFILE
		SCAN_DEPTH=0.00
		SCAN_OFFAXIS_INPLANE=-25.00
		SCAN_ANGLE=0.00
		SCAN_DIAGONAL=NOT_DIAGONAL
		MEAS_PRESET=TIME_PRESET
		MEAS_TIME=33.600
		MEAS_UNIT=GY
		PRESSURE=995.30
		TEMPERATURE=19.10
		NORM_TEMPERATURE=20.00
		CORRECTION_FACTOR=1.1270
		CALIBRATION_FILE=C:\Users\Public\Documents\PTW\Common Files\Calibration Files\230554201_OCTAVIUS1600XDR_191760.cal
		CORRECTIONS=AIR_DENSITY_CORR;FACTOR_CORR;
		BEGIN_DATA
			-75.00		92.087E-06		#1511
			-70.00		-88.488E-06		#1480
			-65.00		291.60E-06		#1449
			-60.00		250.75E-06		#1418
			-55.00		-47.705E-06		#1387
			-50.00		181.31E-06		#1356
			-45.00		22.783E-06		#1325
			-40.00		433.92E-06		#1294
			-35.00		898.54E-06		#1263
			-32.50		2.1863E-03		#1239
			-30.00		6.2112E-03		#1203
			-27.50		14.855E-03		#1167
			-25.00		28.109E-03		#1131
			-22.50		40.434E-03		#1095
			-20.00		47.072E-03		#1059
			-17.50		50.893E-03		#1023
			-15.00		51.386E-03		#987
			-12.50		51.971E-03		#951
			-10.00		51.589E-03		#915
			-7.50		51.954E-03		#879
			-5.00		51.387E-03		#843
			-2.50		51.766E-03		#807
			0.00		51.379E-03		#771
			2.50		52.187E-03		#735
			5.00		51.679E-03		#699
			7.50		52.465E-03		#663
			10.00		52.102E-03		#627
			12.50		52.302E-03		#591
			15.00		51.396E-03		#555
			17.50		47.871E-03		#519
			20.00		41.118E-03		#483
			22.50		27.985E-03		#447
			25.00		14.456E-03		#411
			27.50		5.4288E-03		#375
			30.00		1.8471E-03		#339
			32.50		640.42E-06		#303
			35.00		511.99E-06		#269
			40.00		252.24E-06		#238
			45.00		450.39E-06		#207
			50.00		-26.520E-06		#176
			55.00		316.86E-06		#145
			60.00		-6.3073E-06		#114
			65.00		319.99E-06		#83
			70.00		268.66E-06		#52
			75.00		24.534E-06		#21
		END_DATA
	END_SCAN  13
	BEGIN_SCAN  14
		TASK_NAME=DOSE
		GROUP_NAME=LR_33.6
		PROGRAM=BeamAdjust 2.3.0.25
		COMMENT=G000, E221_c-dhex3.6_4
		MEAS_DATE=08-Jun-2024 21:52:49
		LINAC=HIT
		MODALITY=P
		INPLANE_AXIS_DIR=TARGET_GUN
		CROSSPLANE_AXIS_DIR=LEFT_RIGHT
		DEPTH_AXIS_DIR=UP_DOWN
		ENERGY=0.00
		SSD=0.00
		FIELD_INPLANE=50.00
		FIELD_CROSSPLANE=50.00
		FIELD_TYPE=RECTANGULAR
		GANTRY=0.00
		GANTRY_UPRIGHT_POSITION=0
		GANTRY_ROTATION=CW
		COLL_ANGLE=90.00
		SCAN_DEVICE=OCTAVIUS_1600_XDR
		ELECTROMETER=DETECTOR_INTERFACE
		ELECTROMETER_SN=5987
		DETECTOR=OCTAVIUS_1600_XDR
		DETECTOR_SN=191760
		FILTER=FF
		SCAN_CURVETYPE=CROSSPLANE_PROFILE
		SCAN_DEPTH=0.00
		SCAN_OFFAXIS_INPLANE=-22.50
		SCAN_ANGLE=0.00
		SCAN_DIAGONAL=NOT_DIAGONAL
		MEAS_PRESET=TIME_PRESET
		MEAS_TIME=33.600
		MEAS_UNIT=GY
		PRESSURE=995.30
		TEMPERATURE=19.10
		NORM_TEMPERATURE=20.00
		CORRECTION_FACTOR=1.1270
		CALIBRATION_FILE=C:\Users\Public\Documents\PTW\Common Files\Calibration Files\230554201_OCTAVIUS1600XDR_191760.cal
		CORRECTIONS=AIR_DENSITY_CORR;FACTOR_CORR;
		BEGIN_DATA
			-32.50		3.1099E-03		#1238
			-30.00		9.5366E-03		#1202
			-27.50		23.447E-03		#1166
			-25.00		43.147E-03		#1130
			-22.50		61.481E-03		#1094
			-20.00		73.182E-03		#1058
			-17.50		76.873E-03		#1022
			-15.00		77.343E-03		#986
			-12.50		77.559E-03		#950
			-10.00		78.318E-03		#914
			-7.50		77.990E-03		#878
			-5.00		77.702E-03		#842
			-2.50		78.105E-03		#806
			0.00		78.666E-03		#770
			2.50		78.691E-03		#734
			5.00		79.013E-03		#698
			7.50		79.010E-03		#662
			10.00		78.583E-03		#626
			12.50		78.771E-03		#590
			15.00		77.196E-03		#554
			17.50		72.168E-03		#518
			20.00		60.106E-03		#482
			22.50		40.893E-03		#446
			25.00		20.595E-03		#410
			27.50		8.0060E-03		#374
			30.00		2.4058E-03		#338
			32.50		1.0574E-03		#302
		END_DATA
	END_SCAN  14
	BEGIN_SCAN  15
		TASK_NAME=DOSE
		GROUP_NAME=LR_33.6
		PROGRAM=BeamAdjust 2.3.0.25
		COMMENT=G000, E221_c-dhex3.6_4
		MEAS_DATE=08-Jun-2024 21:52:49
		LINAC=HIT
		MODALITY=P
		INPLANE_AXIS_DIR=TARGET_GUN
		CROSSPLANE_AXIS_DIR=LEFT_RIGHT
		DEPTH_AXIS_DIR=UP_DOWN
		ENERGY=0.00
		SSD=0.00
		FIELD_INPLANE=50.00
		FIELD_CROSSPLANE=50.00
		FIELD_TYPE=RECTANGULAR
		GANTRY=0.00
		GANTRY_UPRIGHT_POSITION=0
		GANTRY_ROTATION=CW
		COLL_ANGLE=90.00
		SCAN_DEVICE=OCTAVIUS_1600_XDR
		ELECTROMETER=DETECTOR_INTERFACE
		ELECTROMETER_SN=5987
		DETECTOR=OCTAVIUS_1600_XDR
		DETECTOR_SN=191760
		FILTER=FF
		SCAN_CURVETYPE=CROSSPLANE_PROFILE
		SCAN_DEPTH=0.00
		SCAN_OFFAXIS_INPLANE=-20.00
		SCAN_ANGLE=0.00
		SCAN_DIAGONAL=NOT_DIAGONAL
		MEAS_PRESET=TIME_PRESET
		MEAS_TIME=33.600
		MEAS_UNIT=GY
		PRESSURE=995.30
		TEMPERATURE=19.10
		NORM_TEMPERATURE=20.00
		CORRECTION_FACTOR=1.1270
		CALIBRATION_FILE=C:\Users\Public\Documents\PTW\Common Files\Calibration Files\230554201_OCTAVIUS1600XDR_191760.cal
		CORRECTIONS=AIR_DENSITY_CORR;FACTOR_CORR;
		BEGIN_DATA
			-75.00		162.28E-06		#1510
			-70.00		130.84E-06		#1479
			-65.00		53.272E-06		#1448
			-60.00		-81.700E-06		#1417
			-55.00		-48.729E-06		#1386
			-50.00		-129.61E-06		#1355
			-45.00		252.03E-06		#1324
			-40.00		372.53E-06		#1293
			-35.00		1.4207E-03		#1262
			-32.50		4.1862E-03		#1237
			-30.00		12.773E-03		#1201
			-27.50		30.778E-03		#1165
			-25.00		56.944E-03		#1129
			-22.50		79.954E-03		#1093
			-20.00		92.696E-03		#1057
			-17.50		98.376E-03		#1021
			-15.00		100.16E-03		#985
			-12.50		99.988E-03		#949
			-10.00		99.388E-03		#913
			-7.50		100.10E-03		#877
			-5.00		99.647E-03		#841
			-2.50		99.996E-03		#805
			0.00		99.651E-03		#769
			2.50		99.864E-03		#733
			5.00		99.924E-03		#697
			7.50		100.28E-03		#661
			10.00		100.27E-03		#625
			12.50		100.01E-03		#589
			15.00		97.867E-03		#553
			17.50		90.720E-03		#517
			20.00		75.588E-03		#481
			22.50		49.849E-03		#445
			25.00		24.602E-03		#409
			27.50		9.5126E-03		#373
			30.00		3.0506E-03		#337
			32.50		1.3943E-03		#301
			35.00		717.02E-06		#268
			40.00		395.08E-06		#237
			45.00		347.64E-06		#206
			50.00		138.57E-06		#175
			55.00		116.79E-06		#144
			60.00		336.85E-06		#113
			65.00		-12.689E-06		#82
			70.00		57.352E-06		#51
			75.00		-179.46E-06		#20
		END_DATA
	END_SCAN  15
	BEGIN_SCAN  16
