BEGIN_SCAN_DATA
	FORMAT=CC-Export V1.9                  
	FILE_CREATION_DATE=08-Jun-2024 21:47:32
	LAST_MODIFIED=08-Jun-2024 21:47:32
	BEGIN_SCAN  1
		TASK_NAME=DOSE
		GROUP_NAME=LR_30.4
		PROGRAM=BeamAdjust 2.3.0.25
		COMMENT=G000, E221_c-dhex3.6_4
		MEAS_DATE=08-Jun-2024 21:47:25
		LINAC=HIT
		MODALITY=P
		INPLANE_AXIS_DIR=TARGET_GUN
		CROSSPLANE_AXIS_DIR=LEFT_RIGHT
		DEPTH_AXIS_DIR=UP_DOWN
		ENERGY=0.00
		SSD=0.00
		FIELD_INPLANE=50.00
		FIELD_CROSSPLANE=50.00
		FIELD_TYPE=RECTANGULAR
		GANTRY=0.00
		GANTRY_UPRIGHT_POSITION=0
		GANTRY_ROTATION=CW
		COLL_ANGLE=90.00
		SCAN_DEVICE=OCTAVIUS_1600_XDR
		ELECTROMETER=DETECTOR_INTERFACE
		ELECTROMETER_SN=5987
		DETECTOR=OCTAVIUS_1600_XDR
		DETECTOR_SN=191760
		FILTER=FF
		SCAN_CURVETYPE=CROSSPLANE_PROFILE
		SCAN_DEPTH=0.00
		SCAN_OFFAXIS_INPLANE=-75.00
		SCAN_ANGLE=0.00
		SCAN_DIAGONAL=NOT_DIAGONAL
		MEAS_PRESET=TIME_PRESET
		MEAS_TIME=30.400
		MEAS_UNIT=GY
		PRESSURE=995.30
		TEMPERATURE=19.10
		NORM_TEMPERATURE=20.00
		CORRECTION_FACTOR=1.1270
		CALIBRATION_FILE=C:\Users\Public\Documents\PTW\Common Files\Calibration Files\230554201_OCTAVIUS1600XDR_191760.cal
		CORRECTIONS=AIR_DENSITY_CORR;FACTOR_CORR;
		BEGIN_DATA
			-75.00		190.91E-06		#1521
			-70.00		56.996E-06		#1490
			-65.00		58.457E-06		#1459
			-60.00		42.749E-06		#1428
			-55.00		-13.592E-06		#1397
			-50.00		65.103E-06		#1366
			-45.00		185.06E-06		#1335
			-40.00		-9.4365E-06		#1304
			-35.00		-40.710E-06		#1273
			-30.00		96.463E-06		#1215
			-25.00		258.19E-06		#1143
			-20.00		-3.8174E-06		#1071
			-15.00		203.34E-06		#999
			-10.00		107.12E-06		#927
			-5.00		36.097E-06		#855
			0.00		162.16E-06		#783
			5.00		72.021E-06		#711
			10.00		25.505E-06		#639
			15.00		186.46E-06		#567
			20.00		55.828E-06		#495
			25.00		297.89E-06		#423
			30.00		-249.09E-06		#351
			35.00		358.82E-06		#279
			40.00		279.05E-06		#248
			45.00		-35.435E-06		#217
			50.00		-260.52E-06		#186
			55.00		94.353E-06		#155
			60.00		-156.60E-06		#124
			65.00		112.53E-06		#93
			70.00		253.54E-06		#62
			75.00		-363.70E-06		#31
		END_DATA
	END_SCAN  1
	BEGIN_SCAN  2
		TASK_NAME=DOSE
		GROUP_NAME=LR_30.4
		PROGRAM=BeamAdjust 2.3.0.25
		COMMENT=G000, E221_c-dhex3.6_4
		MEAS_DATE=08-Jun-2024 21:47:25
		LINAC=HIT
		MODALITY=P
		INPLANE_AXIS_DIR=TARGET_GUN
		CROSSPLANE_AXIS_DIR=LEFT_RIGHT
		DEPTH_AXIS_DIR=UP_DOWN
		ENERGY=0.00
		SSD=0.00
		FIELD_INPLANE=50.00
		FIELD_CROSSPLANE=50.00
		FIELD_TYPE=RECTANGULAR
		GANTRY=0.00
		GANTRY_UPRIGHT_POSITION=0
		GANTRY_ROTATION=CW
		COLL_ANGLE=90.00
		SCAN_DEVICE=OCTAVIUS_1600_XDR
		ELECTROMETER=DETECTOR_INTERFACE
		ELECTROMETER_SN=5987
		DETECTOR=OCTAVIUS_1600_XDR
		DETECTOR_SN=191760
		FILTER=FF
		SCAN_CURVETYPE=CROSSPLANE_PROFILE
		SCAN_DEPTH=0.00
		SCAN_OFFAXIS_INPLANE=-70.00
		SCAN_ANGLE=0.00
		SCAN_DIAGONAL=NOT_DIAGONAL
		MEAS_PRESET=TIME_PRESET
		MEAS_TIME=30.400
		MEAS_UNIT=GY
		PRESSURE=995.30
		TEMPERATURE=19.10
		NORM_TEMPERATURE=20.00
		CORRECTION_FACTOR=1.1270
		CALIBRATION_FILE=C:\Users\Public\Documents\PTW\Common Files\Calibration Files\230554201_OCTAVIUS1600XDR_191760.cal
		CORRECTIONS=AIR_DENSITY_CORR;FACTOR_CORR;
		BEGIN_DATA
			-75.00		146.47E-06		#1520
			-70.00		158.65E-06		#1489
			-65.00		48.481E-06		#1458
			-60.00		-51.683E-06		#1427
			-55.00		-32.587E-06		#1396
			-50.00		-37.144E-06		#1365
			-45.00		296.66E-06		#1334
			-40.00		118.02E-06		#1303
			-35.00		271.57E-06		#1272
			-30.00		164.67E-06		#1214
			-25.00		-160.14E-06		#1142
			-20.00		81.232E-06		#1070
			-15.00		26.293E-06		#998
			-10.00		2.4948E-06		#926
			-5.00		367.58E-06		#854
			0.00		96.119E-06		#782
			5.00		253.69E-06		#710
			10.00		83.000E-06		#638
			15.00		118.27E-06		#566
			20.00		-263.02E-06		#494
			25.00		252.80E-06		#422
			30.00		162.91E-06		#350
			35.00		221.43E-06		#278
			40.00		-78.424E-06		#247
			45.00		-78.818E-06		#216
			50.00		160.21E-06		#185
			55.00		-4.8940E-06		#154
			60.00		135.70E-06		#123
			65.00		11.781E-06		#92
			70.00		36.406E-06		#61
			75.00		160.96E-06		#30
		END_DATA
	END_SCAN  2
	BEGIN_SCAN  3
		TASK_NAME=DOSE
		GROUP_NAME=LR_30.4
		PROGRAM=BeamAdjust 2.3.0.25
		COMMENT=G000, E221_c-dhex3.6_4
		MEAS_DATE=08-Jun-2024 21:47:25
		LINAC=HIT
		MODALITY=P
		INPLANE_AXIS_DIR=TARGET_GUN
		CROSSPLANE_AXIS_DIR=LEFT_RIGHT
		DEPTH_AXIS_DIR=UP_DOWN
		ENERGY=0.00
		SSD=0.00
		FIELD_INPLANE=50.00
		FIELD_CROSSPLANE=50.00
		FIELD_TYPE=RECTANGULAR
		GANTRY=0.00
		GANTRY_UPRIGHT_POSITION=0
		GANTRY_ROTATION=CW
		COLL_ANGLE=90.00
		SCAN_DEVICE=OCTAVIUS_1600_XDR
		ELECTROMETER=DETECTOR_INTERFACE
		ELECTROMETER_SN=5987
		DETECTOR=OCTAVIUS_1600_XDR
		DETECTOR_SN=191760
		FILTER=FF
		SCAN_CURVETYPE=CROSSPLANE_PROFILE
		SCAN_DEPTH=0.00
		SCAN_OFFAXIS_INPLANE=-65.00
		SCAN_ANGLE=0.00
		SCAN_DIAGONAL=NOT_DIAGONAL
		MEAS_PRESET=TIME_PRESET
		MEAS_TIME=30.400
		MEAS_UNIT=GY
		PRESSURE=995.30
		TEMPERATURE=19.10
		NORM_TEMPERATURE=20.00
		CORRECTION_FACTOR=1.1270
		CALIBRATION_FILE=C:\Users\Public\Documents\PTW\Common Files\Calibration Files\230554201_OCTAVIUS1600XDR_191760.cal
		CORRECTIONS=AIR_DENSITY_CORR;FACTOR_CORR;
		BEGIN_DATA
			-75.00		49.526E-06		#1519
			-70.00		37.034E-06		#1488
			-65.00		229.16E-06		#1457
			-60.00		-78.022E-06		#1426
			-55.00		109.07E-06		#1395
			-50.00		134.83E-06		#1364
			-45.00		63.869E-06		#1333
			-40.00		100.99E-06		#1302
			-35.00		226.13E-06		#1271
			-30.00		90.258E-06		#1213
			-25.00		86.337E-06		#1141
			-20.00		-7.7125E-06		#1069
			-15.00		259.39E-06		#997
			-10.00		197.23E-06		#925
			-5.00		227.81E-06		#853
			0.00		213.89E-06		#781
			5.00		135.64E-06		#709
			10.00		295.04E-06		#637
			15.00		81.266E-06		#565
			20.00		100.78E-06		#493
			25.00		128.20E-06		#421
			30.00		-64.559E-06		#349
			35.00		235.33E-06		#277
			40.00		-164.71E-06		#246
			45.00		177.32E-06		#215
			50.00		134.79E-06		#184
			55.00		85.836E-06		#153
			60.00		-14.348E-06		#122
			65.00		48.987E-06		#91
			70.00		37.275E-06		#60
			75.00		147.76E-06		#29
		END_DATA
	END_SCAN  3
	BEGIN_SCAN  4
		TASK_NAME=DOSE
		GROUP_NAME=LR_30.4
		PROGRAM=BeamAdjust 2.3.0.25
		COMMENT=G000, E221_c-dhex3.6_4
		MEAS_DATE=08-Jun-2024 21:47:25
		LINAC=HIT
		MODALITY=P
		INPLANE_AXIS_DIR=TARGET_GUN
		CROSSPLANE_AXIS_DIR=LEFT_RIGHT
		DEPTH_AXIS_DIR=UP_DOWN
		ENERGY=0.00
		SSD=0.00
		FIELD_INPLANE=50.00
		FIELD_CROSSPLANE=50.00
		FIELD_TYPE=RECTANGULAR
		GANTRY=0.00
		GANTRY_UPRIGHT_POSITION=0
		GANTRY_ROTATION=CW
		COLL_ANGLE=90.00
		SCAN_DEVICE=OCTAVIUS_1600_XDR
		ELECTROMETER=DETECTOR_INTERFACE
		ELECTROMETER_SN=5987
		DETECTOR=OCTAVIUS_1600_XDR
		DETECTOR_SN=191760
		FILTER=FF
		SCAN_CURVETYPE=CROSSPLANE_PROFILE
		SCAN_DEPTH=0.00
		SCAN_OFFAXIS_INPLANE=-60.00
		SCAN_ANGLE=0.00
		SCAN_DIAGONAL=NOT_DIAGONAL
		MEAS_PRESET=TIME_PRESET
		MEAS_TIME=30.400
		MEAS_UNIT=GY
		PRESSURE=995.30
		TEMPERATURE=19.10
		NORM_TEMPERATURE=20.00
		CORRECTION_FACTOR=1.1270
		CALIBRATION_FILE=C:\Users\Public\Documents\PTW\Common Files\Calibration Files\230554201_OCTAVIUS1600XDR_191760.cal
		CORRECTIONS=AIR_DENSITY_CORR;FACTOR_CORR;
		BEGIN_DATA
			-75.00		2.8807E-06		#1518
			-70.00		-70.880E-06		#1487
			-65.00		126.14E-06		#1456
			-60.00		-16.726E-06		#1425
			-55.00		244.91E-06		#1394
			-50.00		131.58E-06		#1363
			-45.00		228.08E-06		#1332
			-40.00		319.38E-06		#1301
			-35.00		25.944E-06		#1270
			-30.00		48.959E-06		#1212
			-25.00		364.05E-06		#1140
			-20.00		262.37E-06		#1068
			-15.00		114.52E-06		#996
			-10.00		286.14E-06		#924
			-5.00		394.28E-06		#852
			0.00		-12.354E-06		#780
			5.00		262.24E-06		#708
			10.00		308.09E-06		#636
			15.00		253.70E-06		#564
			20.00		49.385E-06		#492
			25.00		182.86E-06		#420
			30.00		261.58E-06		#348
			35.00		-76.527E-06		#276
			40.00		300.45E-06		#245
			45.00		211.52E-06		#214
			50.00		77.807E-06		#183
			55.00		285.16E-06		#152
			60.00		-61.082E-06		#121
			65.00		73.251E-06		#90
			70.00		1.4110E-06		#59
			75.00		292.16E-06		#28
		END_DATA
	END_SCAN  4
	BEGIN_SCAN  5
		TASK_NAME=DOSE
		GROUP_NAME=LR_30.4
		PROGRAM=BeamAdjust 2.3.0.25
		COMMENT=G000, E221_c-dhex3.6_4
		MEAS_DATE=08-Jun-2024 21:47:25
		LINAC=HIT
		MODALITY=P
		INPLANE_AXIS_DIR=TARGET_GUN
		CROSSPLANE_AXIS_DIR=LEFT_RIGHT
		DEPTH_AXIS_DIR=UP_DOWN
		ENERGY=0.00
		SSD=0.00
		FIELD_INPLANE=50.00
		FIELD_CROSSPLANE=50.00
		FIELD_TYPE=RECTANGULAR
		GANTRY=0.00
		GANTRY_UPRIGHT_POSITION=0
		GANTRY_ROTATION=CW
		COLL_ANGLE=90.00
		SCAN_DEVICE=OCTAVIUS_1600_XDR
		ELECTROMETER=DETECTOR_INTERFACE
		ELECTROMETER_SN=5987
		DETECTOR=OCTAVIUS_1600_XDR
		DETECTOR_SN=191760
		FILTER=FF
		SCAN_CURVETYPE=CROSSPLANE_PROFILE
		SCAN_DEPTH=0.00
		SCAN_OFFAXIS_INPLANE=-55.00
		SCAN_ANGLE=0.00
		SCAN_DIAGONAL=NOT_DIAGONAL
		MEAS_PRESET=TIME_PRESET
		MEAS_TIME=30.400
		MEAS_UNIT=GY
		PRESSURE=995.30
		TEMPERATURE=19.10
		NORM_TEMPERATURE=20.00
		CORRECTION_FACTOR=1.1270
		CALIBRATION_FILE=C:\Users\Public\Documents\PTW\Common Files\Calibration Files\230554201_OCTAVIUS1600XDR_191760.cal
		CORRECTIONS=AIR_DENSITY_CORR;FACTOR_CORR;
		BEGIN_DATA
			-75.00		136.91E-06		#1517
			-70.00		121.95E-06		#1486
			-65.00		61.095E-06		#1455
			-60.00		147.99E-06		#1424
			-55.00		114.52E-06		#1393
			-50.00		93.895E-06		#1362
			-45.00		185.01E-06		#1331
			-40.00		151.47E-06		#1300
			-35.00		350.65E-06		#1269
			-30.00		391.14E-06		#1211
			-25.00		516.32E-06		#1139
			-20.00		317.43E-06		#1067
			-15.00		402.34E-06		#995
			-10.00		252.18E-06		#923
			-5.00		513.53E-06		#851
			0.00		367.11E-06		#779
			5.00		389.14E-06		#707
			10.00		633.60E-06		#635
			15.00		297.92E-06		#563
			20.00		519.15E-06		#491
			25.00		293.79E-06		#419
			30.00		136.08E-06		#347
			35.00		86.272E-06		#275
			40.00		122.60E-06		#244
			45.00		501.36E-06		#213
			50.00		110.35E-06		#182
			55.00		66.576E-06		#151
			60.00		72.384E-06		#120
			65.00		1.9942E-06		#89
			70.00		-81.351E-06		#58
			75.00		-842.91E-09		#27
		END_DATA
	END_SCAN  5
	BEGIN_SCAN  6
		TASK_NAME=DOSE
		GROUP_NAME=LR_30.4
		PROGRAM=BeamAdjust 2.3.0.25
		COMMENT=G000, E221_c-dhex3.6_4
		MEAS_DATE=08-Jun-2024 21:47:25
		LINAC=HIT
		MODALITY=P
		INPLANE_AXIS_DIR=TARGET_GUN
		CROSSPLANE_AXIS_DIR=LEFT_RIGHT
		DEPTH_AXIS_DIR=UP_DOWN
		ENERGY=0.00
		SSD=0.00
		FIELD_INPLANE=50.00
		FIELD_CROSSPLANE=50.00
		FIELD_TYPE=RECTANGULAR
		GANTRY=0.00
		GANTRY_UPRIGHT_POSITION=0
		GANTRY_ROTATION=CW
		COLL_ANGLE=90.00
		SCAN_DEVICE=OCTAVIUS_1600_XDR
		ELECTROMETER=DETECTOR_INTERFACE
		ELECTROMETER_SN=5987
		DETECTOR=OCTAVIUS_1600_XDR
		DETECTOR_SN=191760
		FILTER=FF
		SCAN_CURVETYPE=CROSSPLANE_PROFILE
		SCAN_DEPTH=0.00
		SCAN_OFFAXIS_INPLANE=-50.00
		SCAN_ANGLE=0.00
		SCAN_DIAGONAL=NOT_DIAGONAL
		MEAS_PRESET=TIME_PRESET
		MEAS_TIME=30.400
		MEAS_UNIT=GY
		PRESSURE=995.30
		TEMPERATURE=19.10
		NORM_TEMPERATURE=20.00
		CORRECTION_FACTOR=1.1270
		CALIBRATION_FILE=C:\Users\Public\Documents\PTW\Common Files\Calibration Files\230554201_OCTAVIUS1600XDR_191760.cal
		CORRECTIONS=AIR_DENSITY_CORR;FACTOR_CORR;
		BEGIN_DATA
			-75.00		-8.3315E-06		#1516
			-70.00		-96.276E-06		#1485
			-65.00		30.773E-06		#1454
			-60.00		170.26E-06		#1423
			-55.00		-39.189E-06		#1392
			-50.00		201.80E-06		#1361
			-45.00		338.90E-06		#1330
			-40.00		621.91E-06		#1299
			-35.00		673.32E-06		#1268
			-30.00		946.33E-06		#1210
			-25.00		762.06E-06		#1138
			-20.00		930.81E-06		#1066
			-15.00		1.0151E-03		#994
			-10.00		1.0730E-03		#922
			-5.00		915.36E-06		#850
			0.00		1.1090E-03		#778
			5.00		1.0575E-03		#706
			10.00		1.0074E-03		#634
			15.00		1.0269E-03		#562
			20.00		959.52E-06		#490
			25.00		972.83E-06		#418
			30.00		718.38E-06		#346
			35.00		500.20E-06		#274
			40.00		475.59E-06		#243
			45.00		135.06E-06		#212
			50.00		-62.382E-06		#181
			55.00		157.83E-06		#150
			60.00		-81.343E-06		#119
			65.00		80.070E-06		#88
			70.00		360.10E-06		#57
			75.00		18.635E-06		#26
		END_DATA
	END_SCAN  6
	BEGIN_SCAN  7
		TASK_NAME=DOSE
		GROUP_NAME=LR_30.4
		PROGRAM=BeamAdjust 2.3.0.25
		COMMENT=G000, E221_c-dhex3.6_4
		MEAS_DATE=08-Jun-2024 21:47:25
		LINAC=HIT
		MODALITY=P
		INPLANE_AXIS_DIR=TARGET_GUN
		CROSSPLANE_AXIS_DIR=LEFT_RIGHT
		DEPTH_AXIS_DIR=UP_DOWN
		ENERGY=0.00
		SSD=0.00
		FIELD_INPLANE=50.00
		FIELD_CROSSPLANE=50.00
		FIELD_TYPE=RECTANGULAR
		GANTRY=0.00
		GANTRY_UPRIGHT_POSITION=0
		GANTRY_ROTATION=CW
		COLL_ANGLE=90.00
		SCAN_DEVICE=OCTAVIUS_1600_XDR
		ELECTROMETER=DETECTOR_INTERFACE
		ELECTROMETER_SN=5987
		DETECTOR=OCTAVIUS_1600_XDR
		DETECTOR_SN=191760
		FILTER=FF
		SCAN_CURVETYPE=CROSSPLANE_PROFILE
		SCAN_DEPTH=0.00
		SCAN_OFFAXIS_INPLANE=-45.00
		SCAN_ANGLE=0.00
		SCAN_DIAGONAL=NOT_DIAGONAL
		MEAS_PRESET=TIME_PRESET
		MEAS_TIME=30.400
		MEAS_UNIT=GY
		PRESSURE=995.30
		TEMPERATURE=19.10
		NORM_TEMPERATURE=20.00
		CORRECTION_FACTOR=1.1270
		CALIBRATION_FILE=C:\Users\Public\Documents\PTW\Common Files\Calibration Files\230554201_OCTAVIUS1600XDR_191760.cal
		CORRECTIONS=AIR_DENSITY_CORR;FACTOR_CORR;
		BEGIN_DATA
			-75.00		180.01E-06		#1515
			-70.00		-36.281E-06		#1484
			-65.00		140.10E-06		#1453
			-60.00		-120.24E-06		#1422
			-55.00		269.31E-06		#1391
			-50.00		331.65E-06		#1360
			-45.00		555.01E-06		#1329
			-40.00		1.0145E-03		#1298
			-35.00		1.8345E-03		#1267
			-30.00		2.8327E-03		#1209
			-25.00		3.1623E-03		#1137
			-20.00		3.3403E-03		#1065
			-15.00		3.6598E-03		#993
			-10.00		3.4301E-03		#921
			-5.00		3.6632E-03		#849
			0.00		3.7778E-03		#777
			5.00		3.6678E-03		#705
			10.00		3.5091E-03		#633
			15.00		3.5034E-03		#561
			20.00		3.3858E-03		#489
			25.00		3.3229E-03		#417
			30.00		2.7860E-03		#345
			35.00		1.8794E-03		#273
			40.00		980.81E-06		#242
			45.00		549.09E-06		#211
			50.00		334.42E-06		#180
			55.00		32.406E-06		#149
			60.00		224.78E-06		#118
			65.00		378.07E-06		#87
			70.00		33.333E-06		#56
			75.00		-105.17E-06		#25
		END_DATA
	END_SCAN  7
	BEGIN_SCAN  8
		TASK_NAME=DOSE
		GROUP_NAME=LR_30.4
		PROGRAM=BeamAdjust 2.3.0.25
		COMMENT=G000, E221_c-dhex3.6_4
		MEAS_DATE=08-Jun-2024 21:47:25
		LINAC=HIT
		MODALITY=P
		INPLANE_AXIS_DIR=TARGET_GUN
		CROSSPLANE_AXIS_DIR=LEFT_RIGHT
		DEPTH_AXIS_DIR=UP_DOWN
		ENERGY=0.00
		SSD=0.00
		FIELD_INPLANE=50.00
		FIELD_CROSSPLANE=50.00
		FIELD_TYPE=RECTANGULAR
		GANTRY=0.00
		GANTRY_UPRIGHT_POSITION=0
		GANTRY_ROTATION=CW
		COLL_ANGLE=90.00
		SCAN_DEVICE=OCTAVIUS_1600_XDR
		ELECTROMETER=DETECTOR_INTERFACE
		ELECTROMETER_SN=5987
		DETECTOR=OCTAVIUS_1600_XDR
		DETECTOR_SN=191760
		FILTER=FF
		SCAN_CURVETYPE=CROSSPLANE_PROFILE
		SCAN_DEPTH=0.00
		SCAN_OFFAXIS_INPLANE=-40.00
		SCAN_ANGLE=0.00
		SCAN_DIAGONAL=NOT_DIAGONAL
		MEAS_PRESET=TIME_PRESET
		MEAS_TIME=30.400
		MEAS_UNIT=GY
		PRESSURE=995.30
		TEMPERATURE=19.10
		NORM_TEMPERATURE=20.00
		CORRECTION_FACTOR=1.1270
		CALIBRATION_FILE=C:\Users\Public\Documents\PTW\Common Files\Calibration Files\230554201_OCTAVIUS1600XDR_191760.cal
		CORRECTIONS=AIR_DENSITY_CORR;FACTOR_CORR;
		BEGIN_DATA
			-75.00		4.1113E-06		#1514
			-70.00		61.984E-06		#1483
			-65.00		193.88E-06		#1452
			-60.00		38.756E-06		#1421
			-55.00		347.62E-06		#1390
			-50.00		657.18E-06		#1359
			-45.00		1.1688E-03		#1328
			-40.00		3.8821E-03		#1297
			-35.00		9.3482E-03		#1266
			-30.00		13.339E-03		#1208
			-25.00		14.485E-03		#1136
			-20.00		14.648E-03		#1064
			-15.00		15.010E-03		#992
			-10.00		14.933E-03		#920
			-5.00		15.264E-03		#848
			0.00		15.238E-03		#776
			5.00		15.587E-03		#704
			10.00		15.648E-03		#632
			15.00		15.076E-03		#560
			20.00		15.462E-03		#488
			25.00		14.951E-03		#416
			30.00		12.980E-03		#344
			35.00		8.1770E-03		#272
			40.00		2.8729E-03		#241
			45.00		1.0635E-03		#210
			50.00		189.16E-06		#179
			55.00		278.65E-06		#148
			60.00		240.44E-06		#117
			65.00		254.28E-06		#86
			70.00		157.35E-06		#55
			75.00		252.52E-06		#24
		END_DATA
	END_SCAN  8
	BEGIN_SCAN  9
		TASK_NAME=DOSE
		GROUP_NAME=LR_30.4
		PROGRAM=BeamAdjust 2.3.0.25
		COMMENT=G000, E221_c-dhex3.6_4
		MEAS_DATE=08-Jun-2024 21:47:25
		LINAC=HIT
		MODALITY=P
		INPLANE_AXIS_DIR=TARGET_GUN
		CROSSPLANE_AXIS_DIR=LEFT_RIGHT
		DEPTH_AXIS_DIR=UP_DOWN
		ENERGY=0.00
		SSD=0.00
		FIELD_INPLANE=50.00
		FIELD_CROSSPLANE=50.00
		FIELD_TYPE=RECTANGULAR
		GANTRY=0.00
		GANTRY_UPRIGHT_POSITION=0
		GANTRY_ROTATION=CW
		COLL_ANGLE=90.00
		SCAN_DEVICE=OCTAVIUS_1600_XDR
		ELECTROMETER=DETECTOR_INTERFACE
		ELECTROMETER_SN=5987
		DETECTOR=OCTAVIUS_1600_XDR
		DETECTOR_SN=191760
		FILTER=FF
		SCAN_CURVETYPE=CROSSPLANE_PROFILE
		SCAN_DEPTH=0.00
		SCAN_OFFAXIS_INPLANE=-35.00
		SCAN_ANGLE=0.00
		SCAN_DIAGONAL=NOT_DIAGONAL
		MEAS_PRESET=TIME_PRESET
		MEAS_TIME=30.400
		MEAS_UNIT=GY
		PRESSURE=995.30
		TEMPERATURE=19.10
		NORM_TEMPERATURE=20.00
		CORRECTION_FACTOR=1.1270
		CALIBRATION_FILE=C:\Users\Public\Documents\PTW\Common Files\Calibration Files\230554201_OCTAVIUS1600XDR_191760.cal
		CORRECTIONS=AIR_DENSITY_CORR;FACTOR_CORR;
		BEGIN_DATA
			-75.00		383.47E-06		#1513
			-70.00		-2.8705E-06		#1482
			-65.00		271.08E-06		#1451
			-60.00		421.98E-06		#1420
			-55.00		456.93E-06		#1389
			-50.00		712.44E-06		#1358
			-45.00		2.6812E-03		#1327
			-40.00		10.954E-03		#1296
			-35.00		27.511E-03		#1265
			-30.00		37.057E-03		#1207
			-25.00		39.503E-03		#1135
			-20.00		40.273E-03		#1063
			-15.00		40.369E-03		#991
			-10.00		40.699E-03		#919
			-5.00		40.818E-03		#847
			0.00		41.062E-03		#775
			5.00		40.997E-03		#703
			10.00		40.999E-03		#631
			15.00		40.408E-03		#559
			20.00		40.853E-03		#487
			25.00		39.914E-03		#415
			30.00		35.268E-03		#343
			35.00		20.367E-03		#271
			40.00		5.9470E-03		#240
			45.00		1.1438E-03		#209
			50.00		289.90E-06		#178
			55.00		124.42E-06		#147
			60.00		203.24E-06		#116
			65.00		-119.95E-06		#85
			70.00		212.01E-06		#54
			75.00		-150.28E-06		#23
		END_DATA
	END_SCAN  9
	BEGIN_SCAN  10
		TASK_NAME=DOSE
		GROUP_NAME=LR_30.4
		PROGRAM=BeamAdjust 2.3.0.25
		COMMENT=G000, E221_c-dhex3.6_4
		MEAS_DATE=08-Jun-2024 21:47:25
		LINAC=HIT
		MODALITY=P
		INPLANE_AXIS_DIR=TARGET_GUN
		CROSSPLANE_AXIS_DIR=LEFT_RIGHT
		DEPTH_AXIS_DIR=UP_DOWN
		ENERGY=0.00
		SSD=0.00
		FIELD_INPLANE=50.00
		FIELD_CROSSPLANE=50.00
		FIELD_TYPE=RECTANGULAR
		GANTRY=0.00
		GANTRY_UPRIGHT_POSITION=0
		GANTRY_ROTATION=CW
		COLL_ANGLE=90.00
		SCAN_DEVICE=OCTAVIUS_1600_XDR
		ELECTROMETER=DETECTOR_INTERFACE
		ELECTROMETER_SN=5987
		DETECTOR=OCTAVIUS_1600_XDR
		DETECTOR_SN=191760
		FILTER=FF
		SCAN_CURVETYPE=CROSSPLANE_PROFILE
		SCAN_DEPTH=0.00
		SCAN_OFFAXIS_INPLANE=-32.50
		SCAN_ANGLE=0.00
		SCAN_DIAGONAL=NOT_DIAGONAL
		MEAS_PRESET=TIME_PRESET
		MEAS_TIME=30.400
		MEAS_UNIT=GY
		PRESSURE=995.30
		TEMPERATURE=19.10
		NORM_TEMPERATURE=20.00
		CORRECTION_FACTOR=1.1270
		CALIBRATION_FILE=C:\Users\Public\Documents\PTW\Common Files\Calibration Files\230554201_OCTAVIUS1600XDR_191760.cal
		CORRECTIONS=AIR_DENSITY_CORR;FACTOR_CORR;
		BEGIN_DATA
			-32.50		43.207E-03		#1242
			-30.00		47.296E-03		#1206
			-27.50		49.238E-03		#1170
			-25.00		49.683E-03		#1134
			-22.50		49.910E-03		#1098
			-20.00		50.190E-03		#1062
			-17.50		50.547E-03		#1026
			-15.00		50.719E-03		#990
			-12.50		50.746E-03		#954
			-10.00		50.733E-03		#918
			-7.50		50.693E-03		#882
			-5.00		50.760E-03		#846
			-2.50		50.807E-03		#810
			0.00		50.939E-03		#774
			2.50		50.755E-03		#738
			5.00		51.103E-03		#702
			7.50		50.892E-03		#666
			10.00		50.955E-03		#630
			12.50		50.924E-03		#594
			15.00		50.657E-03		#558
			17.50		51.317E-03		#522
			20.00		50.564E-03		#486
			22.50		50.509E-03		#450
			25.00		49.663E-03		#414
			27.50		47.678E-03		#378
			30.00		43.258E-03		#342
			32.50		34.810E-03		#306
		END_DATA
	END_SCAN  10
	BEGIN_SCAN  11
		TASK_NAME=DOSE
		GROUP_NAME=LR_30.4
		PROGRAM=BeamAdjust 2.3.0.25
		COMMENT=G000, E221_c-dhex3.6_4
		MEAS_DATE=08-Jun-2024 21:47:25
		LINAC=HIT
		MODALITY=P
		INPLANE_AXIS_DIR=TARGET_GUN
		CROSSPLANE_AXIS_DIR=LEFT_RIGHT
		DEPTH_AXIS_DIR=UP_DOWN
		ENERGY=0.00
		SSD=0.00
		FIELD_INPLANE=50.00
		FIELD_CROSSPLANE=50.00
		FIELD_TYPE=RECTANGULAR
		GANTRY=0.00
		GANTRY_UPRIGHT_POSITION=0
		GANTRY_ROTATION=CW
		COLL_ANGLE=90.00
		SCAN_DEVICE=OCTAVIUS_1600_XDR
		ELECTROMETER=DETECTOR_INTERFACE
		ELECTROMETER_SN=5987
		DETECTOR=OCTAVIUS_1600_XDR
		DETECTOR_SN=191760
		FILTER=FF
		SCAN_CURVETYPE=CROSSPLANE_PROFILE
		SCAN_DEPTH=0.00
		SCAN_OFFAXIS_INPLANE=-30.00
		SCAN_ANGLE=0.00
		SCAN_DIAGONAL=NOT_DIAGONAL
		MEAS_PRESET=TIME_PRESET
		MEAS_TIME=30.400
		MEAS_UNIT=GY
		PRESSURE=995.30
		TEMPERATURE=19.10
		NORM_TEMPERATURE=20.00
		CORRECTION_FACTOR=1.1270
		CALIBRATION_FILE=C:\Users\Public\Documents\PTW\Common Files\Calibration Files\230554201_OCTAVIUS1600XDR_191760.cal
		CORRECTIONS=AIR_DENSITY_CORR;FACTOR_CORR;
		BEGIN_DATA
			-75.00		206.79E-06		#1512
			-70.00		69.947E-06		#1481
			-65.00		68.060E-06		#1450
			-60.00		73.189E-06		#1419
			-55.00		496.95E-06		#1388
			-50.00		985.24E-06		#1357
			-45.00		3.7132E-03		#1326
			-40.00		17.178E-03		#1295
			-35.00		40.589E-03		#1264
			-32.50		48.782E-03		#1241
			-30.00		52.858E-03		#1205
			-27.50		54.445E-03		#1169
			-25.00		55.496E-03		#1133
			-22.50		55.741E-03		#1097
			-20.00		56.305E-03		#1061
			-17.50		56.531E-03		#1025
			-15.00		56.270E-03		#989
			-12.50		56.639E-03		#953
			-10.00		56.197E-03		#917
			-7.50		56.541E-03		#881
			-5.00		56.544E-03		#845
			-2.50		56.526E-03		#809
			0.00		56.380E-03		#773
			2.50		56.607E-03		#737
			5.00		56.221E-03		#701
			7.50		56.783E-03		#665
			10.00		56.086E-03		#629
			12.50		56.580E-03		#593
			15.00		56.293E-03		#557
			17.50		56.524E-03		#521
			20.00		56.215E-03		#485
			22.50		55.625E-03		#449
			25.00		54.766E-03		#413
			27.50		52.803E-03		#377
			30.00		47.317E-03		#341
			32.50		38.508E-03		#305
			35.00		26.214E-03		#270
			40.00		7.6890E-03		#239
			45.00		1.4779E-03		#208
			50.00		467.94E-06		#177
			55.00		442.10E-06		#146
			60.00		181.47E-06		#115
			65.00		85.046E-06		#84
			70.00		347.11E-06		#53
			75.00		-201.62E-06		#22
		END_DATA
	END_SCAN  11
	BEGIN_SCAN  12
		TASK_NAME=DOSE
		GROUP_NAME=LR_30.4
		PROGRAM=BeamAdjust 2.3.0.25
		COMMENT=G000, E221_c-dhex3.6_4
		MEAS_DATE=08-Jun-2024 21:47:25
		LINAC=HIT
		MODALITY=P
		INPLANE_AXIS_DIR=TARGET_GUN
		CROSSPLANE_AXIS_DIR=LEFT_RIGHT
		DEPTH_AXIS_DIR=UP_DOWN
		ENERGY=0.00
		SSD=0.00
		FIELD_INPLANE=50.00
		FIELD_CROSSPLANE=50.00
		FIELD_TYPE=RECTANGULAR
		GANTRY=0.00
		GANTRY_UPRIGHT_POSITION=0
		GANTRY_ROTATION=CW
		COLL_ANGLE=90.00
		SCAN_DEVICE=OCTAVIUS_1600_XDR
		ELECTROMETER=DETECTOR_INTERFACE
		ELECTROMETER_SN=5987
		DETECTOR=OCTAVIUS_1600_XDR
		DETECTOR_SN=191760
		FILTER=FF
		SCAN_CURVETYPE=CROSSPLANE_PROFILE
		SCAN_DEPTH=0.00
		SCAN_OFFAXIS_INPLANE=-27.50
		SCAN_ANGLE=0.00
		SCAN_DIAGONAL=NOT_DIAGONAL
		MEAS_PRESET=TIME_PRESET
		MEAS_TIME=30.400
		MEAS_UNIT=GY
		PRESSURE=995.30
		TEMPERATURE=19.10
		NORM_TEMPERATURE=20.00
		CORRECTION_FACTOR=1.1270
		CALIBRATION_FILE=C:\Users\Public\Documents\PTW\Common Files\Calibration Files\230554201_OCTAVIUS1600XDR_191760.cal
		CORRECTIONS=AIR_DENSITY_CORR;FACTOR_CORR;
		BEGIN_DATA
			-32.50		50.744E-03		#1240
			-30.00		55.520E-03		#1204
			-27.50		56.552E-03		#1168
			-25.00		58.149E-03		#1132
			-22.50		58.429E-03		#1096
			-20.00		58.930E-03		#1060
			-17.50		58.483E-03		#1024
			-15.00		59.248E-03		#988
			-12.50		58.979E-03		#952
			-10.00		59.466E-03		#916
			-7.50		59.216E-03		#880
			-5.00		59.146E-03		#844
			-2.50		58.907E-03		#808
			0.00		58.927E-03		#772
			2.50		59.331E-03		#736
			5.00		59.218E-03		#700
			7.50		59.187E-03		#664
			10.00		58.704E-03		#628
			12.50		59.145E-03		#592
			15.00		58.851E-03		#556
			17.50		58.677E-03		#520
			20.00		58.763E-03		#484
			22.50		58.081E-03		#448
			25.00		57.633E-03		#412
			27.50		54.886E-03		#376
			30.00		49.326E-03		#340
			32.50		39.771E-03		#304
		END_DATA
	END_SCAN  12
	BEGIN_SCAN  13
		TASK_NAME=DOSE
		GROUP_NAME=LR_30.4
		PROGRAM=BeamAdjust 2.3.0.25
		COMMENT=G000, E221_c-dhex3.6_4
		MEAS_DATE=08-Jun-2024 21:47:25
		LINAC=HIT
		MODALITY=P
		INPLANE_AXIS_DIR=TARGET_GUN
		CROSSPLANE_AXIS_DIR=LEFT_RIGHT
		DEPTH_AXIS_DIR=UP_DOWN
		ENERGY=0.00
		SSD=0.00
		FIELD_INPLANE=50.00
		FIELD_CROSSPLANE=50.00
		FIELD_TYPE=RECTANGULAR
		GANTRY=0.00
		GANTRY_UPRIGHT_POSITION=0
		GANTRY_ROTATION=CW
		COLL_ANGLE=90.00
		SCAN_DEVICE=OCTAVIUS_1600_XDR
		ELECTROMETER=DETECTOR_INTERFACE
		ELECTROMETER_SN=5987
		DETECTOR=OCTAVIUS_1600_XDR
		DETECTOR_SN=191760
		FILTER=FF
		SCAN_CURVETYPE=CROSSPLANE_PROFILE
		SCAN_DEPTH=0.00
		SCAN_OFFAXIS_INPLANE=-25.00
		SCAN_ANGLE=0.00
		SCAN_DIAGONAL=NOT_DIAGONAL
		MEAS_PRESET=TIME_PRESET
		MEAS_TIME=30.400
		MEAS_UNIT=GY
		PRESSURE=995.30
		TEMPERATURE=19.10
		NORM_TEMPERATURE=20.00
		CORRECTION_FACTOR=1.1270
		CALIBRATION_FILE=C:\Users\Public\Documents\PTW\Common Files\Calibration Files\230554201_OCTAVIUS1600XDR_191760.cal
		CORRECTIONS=AIR_DENSITY_CORR;FACTOR_CORR;
		BEGIN_DATA
			-75.00		-5.9142E-06		#1511
			-70.00		268.67E-06		#1480
			-65.00		295.89E-06		#1449
			-60.00		193.61E-06		#1418
			-55.00		354.28E-06		#1387
			-50.00		1.2622E-03		#1356
			-45.00		4.5455E-03		#1325
			-40.00		18.562E-03		#1294
			-35.00		43.427E-03		#1263
			-32.50		52.095E-03		#1239
			-30.00		56.834E-03		#1203
			-27.50		58.389E-03		#1167
			-25.00		59.466E-03		#1131
			-22.50		59.675E-03		#1095
			-20.00		59.808E-03		#1059
			-17.50		60.551E-03		#1023
			-15.00		60.017E-03		#987
			-12.50		60.433E-03		#951
			-10.00		60.005E-03		#915
			-7.50		60.484E-03		#879
			-5.00		60.554E-03		#843
			-2.50		60.098E-03		#807
			0.00		59.761E-03		#771
			2.50		60.250E-03		#735
			5.00		59.940E-03		#699
			7.50		59.896E-03		#663
			10.00		59.799E-03		#627
			12.50		60.179E-03		#591
			15.00		59.951E-03		#555
			17.50		59.782E-03		#519
			20.00		60.006E-03		#483
			22.50		59.505E-03		#447
			25.00		58.432E-03		#411
			27.50		55.506E-03		#375
			30.00		50.672E-03		#339
			32.50		40.581E-03		#303
			35.00		28.325E-03		#269
			40.00		7.9765E-03		#238
			45.00		2.1761E-03		#207
			50.00		632.35E-06		#176
			55.00		495.92E-06		#145
			60.00		75.106E-06		#114
			65.00		145.20E-06		#83
			70.00		36.902E-06		#52
			75.00		-128.09E-06		#21
		END_DATA
	END_SCAN  13
	BEGIN_SCAN  14
		TASK_NAME=DOSE
		GROUP_NAME=LR_30.4
		PROGRAM=BeamAdjust 2.3.0.25
		COMMENT=G000, E221_c-dhex3.6_4
		MEAS_DATE=08-Jun-2024 21:47:25
		LINAC=HIT
		MODALITY=P
		INPLANE_AXIS_DIR=TARGET_GUN
		CROSSPLANE_AXIS_DIR=LEFT_RIGHT
		DEPTH_AXIS_DIR=UP_DOWN
		ENERGY=0.00
		SSD=0.00
		FIELD_INPLANE=50.00
		FIELD_CROSSPLANE=50.00
		FIELD_TYPE=RECTANGULAR
		GANTRY=0.00
		GANTRY_UPRIGHT_POSITION=0
		GANTRY_ROTATION=CW
		COLL_ANGLE=90.00
		SCAN_DEVICE=OCTAVIUS_1600_XDR
		ELECTROMETER=DETECTOR_INTERFACE
		ELECTROMETER_SN=5987
		DETECTOR=OCTAVIUS_1600_XDR
		DETECTOR_SN=191760
		FILTER=FF
		SCAN_CURVETYPE=CROSSPLANE_PROFILE
		SCAN_DEPTH=0.00
		SCAN_OFFAXIS_INPLANE=-22.50
		SCAN_ANGLE=0.00
		SCAN_DIAGONAL=NOT_DIAGONAL
		MEAS_PRESET=TIME_PRESET
		MEAS_TIME=30.400
		MEAS_UNIT=GY
		PRESSURE=995.30
		TEMPERATURE=19.10
		NORM_TEMPERATURE=20.00
		CORRECTION_FACTOR=1.1270
		CALIBRATION_FILE=C:\Users\Public\Documents\PTW\Common Files\Calibration Files\230554201_OCTAVIUS1600XDR_191760.cal
		CORRECTIONS=AIR_DENSITY_CORR;FACTOR_CORR;
		BEGIN_DATA
			-32.50		52.248E-03		#1238
			-30.00		57.117E-03		#1202
			-27.50		58.924E-03		#1166
			-25.00		59.851E-03		#1130
			-22.50		60.232E-03		#1094
			-20.00		60.618E-03		#1058
			-17.50		60.438E-03		#1022
			-15.00		60.414E-03		#986
			-12.50		60.367E-03		#950
			-10.00		60.874E-03		#914
			-7.50		60.560E-03		#878
			-5.00		60.456E-03		#842
			-2.50		60.588E-03		#806
			0.00		60.697E-03		#770
			2.50		60.592E-03		#734
			5.00		60.344E-03		#698
			7.50		60.569E-03		#662
			10.00		60.106E-03		#626
			12.50		60.522E-03		#590
			15.00		60.365E-03		#554
			17.50		60.143E-03		#518
			20.00		60.222E-03		#482
			22.50		59.917E-03		#446
			25.00		58.544E-03		#410
			27.50		56.362E-03		#374
			30.00		50.716E-03		#338
			32.50		40.664E-03		#302
		END_DATA
	END_SCAN  14
	BEGIN_SCAN  15
		TASK_NAME=DOSE
		GROUP_NAME=LR_30.4
		PROGRAM=BeamAdjust 2.3.0.25
		COMMENT=G000, E221_c-dhex3.6_4
		MEAS_DATE=08-Jun-2024 21:47:25
		LINAC=HIT
		MODALITY=P
		INPLANE_AXIS_DIR=TARGET_GUN
		CROSSPLANE_AXIS_DIR=LEFT_RIGHT
		DEPTH_AXIS_DIR=UP_DOWN
		ENERGY=0.00
		SSD=0.00
		FIELD_INPLANE=50.00
		FIELD_CROSSPLANE=50.00
		FIELD_TYPE=RECTANGULAR
		GANTRY=0.00
		GANTRY_UPRIGHT_POSITION=0
		GANTRY_ROTATION=CW
		COLL_ANGLE=90.00
		SCAN_DEVICE=OCTAVIUS_1600_XDR
		ELECTROMETER=DETECTOR_INTERFACE
		ELECTROMETER_SN=5987
		DETECTOR=OCTAVIUS_1600_XDR
		DETECTOR_SN=191760
		FILTER=FF
		SCAN_CURVETYPE=CROSSPLANE_PROFILE
		SCAN_DEPTH=0.00
		SCAN_OFFAXIS_INPLANE=-20.00
		SCAN_ANGLE=0.00
		SCAN_DIAGONAL=NOT_DIAGONAL
		MEAS_PRESET=TIME_PRESET
		MEAS_TIME=30.400
		MEAS_UNIT=GY
		PRESSURE=995.30
		TEMPERATURE=19.10
		NORM_TEMPERATURE=20.00
		CORRECTION_FACTOR=1.1270
		CALIBRATION_FILE=C:\Users\Public\Documents\PTW\Common Files\Calibration Files\230554201_OCTAVIUS1600XDR_191760.cal
		CORRECTIONS=AIR_DENSITY_CORR;FACTOR_CORR;
		BEGIN_DATA
			-75.00		300.48E-06		#1510
			-70.00		158.42E-06		#1479
			-65.00		215.43E-06		#1448
			-60.00		67.594E-06		#1417
			-55.00		439.77E-06		#1386
			-50.00		946.80E-06		#1355
			-45.00		4.4744E-03		#1324
			-40.00		18.799E-03		#1293
			-35.00		44.136E-03		#1262
			-32.50		52.553E-03		#1237
			-30.00		56.997E-03		#1201
			-27.50		59.299E-03		#1165
			-25.00		60.658E-03		#1129
			-22.50		60.700E-03		#1093
			-20.00		60.649E-03		#1057
			-17.50		61.011E-03		#1021
			-15.00		61.107E-03		#985
			-12.50		61.454E-03		#949
			-10.00		60.993E-03		#913
			-7.50		61.500E-03		#877
			-5.00		60.838E-03		#841
			-2.50		60.800E-03		#805
			0.00		60.717E-03		#769
			2.50		60.944E-03		#733
			5.00		60.692E-03		#697
			7.50		60.637E-03		#661
			10.00		60.985E-03		#625
			12.50		61.121E-03		#589
			15.00		60.853E-03		#553
			17.50		60.891E-03		#517
			20.00		60.656E-03		#481
			22.50		60.060E-03		#445
			25.00		59.304E-03		#409
			27.50		56.506E-03		#373
			30.00		50.979E-03		#337
			32.50		41.575E-03		#301
			35.00		28.687E-03		#268
			40.00		8.4504E-03		#237
			45.00		2.0820E-03		#206
			50.00		715.91E-06		#175
			55.00		374.08E-06		#144
			60.00		310.51E-06		#113
			65.00		159.18E-06		#82
			70.00		-41.449E-06		#51
			75.00		85.420E-06		#20
		END_DATA
	END_SCAN  15
	BEGIN_SCAN  16
		TASK_NAME=DOSE
		GROUP_NAME=LR_30.4
