BEGIN_SCAN_DATA
	FORMAT=CC-Export V1.9                  
	FILE_CREATION_DATE=08-Jun-2024 21:58:23
	LAST_MODIFIED=08-Jun-2024 21:58:23
	BEGIN_SCAN  1
		TASK_NAME=DOSE
		GROUP_NAME=LR_37.6
		PROGRAM=BeamAdjust 2.3.0.25
		COMMENT=G000, E221_c-dhex3.6_4
		MEAS_DATE=08-Jun-2024 21:58:16
		LINAC=HIT
		MODALITY=P
		INPLANE_AXIS_DIR=TARGET_GUN
		CROSSPLANE_AXIS_DIR=LEFT_RIGHT
		DEPTH_AXIS_DIR=UP_DOWN
		ENERGY=0.00
		SSD=0.00
		FIELD_INPLANE=50.00
		FIELD_CROSSPLANE=50.00
		FIELD_TYPE=RECTANGULAR
		GANTRY=0.00
		GANTRY_UPRIGHT_POSITION=0
		GANTRY_ROTATION=CW
		COLL_ANGLE=90.00
		SCAN_DEVICE=OCTAVIUS_1600_XDR
		ELECTROMETER=DETECTOR_INTERFACE
		ELECTROMETER_SN=5987
		DETECTOR=OCTAVIUS_1600_XDR
		DETECTOR_SN=191760
		FILTER=FF
		SCAN_CURVETYPE=CROSSPLANE_PROFILE
		SCAN_DEPTH=0.00
		SCAN_OFFAXIS_INPLANE=-75.00
		SCAN_ANGLE=0.00
		SCAN_DIAGONAL=NOT_DIAGONAL
		MEAS_PRESET=TIME_PRESET
		MEAS_TIME=37.600
		MEAS_UNIT=GY
		PRESSURE=995.30
		TEMPERATURE=19.10
		NORM_TEMPERATURE=20.00
		CORRECTION_FACTOR=1.1270
		CALIBRATION_FILE=C:\Users\Public\Documents\PTW\Common Files\Calibration Files\230554201_OCTAVIUS1600XDR_191760.cal
		CORRECTIONS=AIR_DENSITY_CORR;FACTOR_CORR;
		BEGIN_DATA
			-75.00		34.234E-06		#1521
			-70.00		72.825E-06		#1490
			-65.00		42.454E-06		#1459
			-60.00		-126.10E-06		#1428
			-55.00		-68.475E-06		#1397
			-50.00		22.626E-06		#1366
			-45.00		-24.776E-06		#1335
			-40.00		-13.097E-06		#1304
			-35.00		-94.671E-06		#1273
			-30.00		50.695E-06		#1215
			-25.00		522.83E-06		#1143
			-20.00		193.70E-06		#1071
			-15.00		207.70E-06		#999
			-10.00		63.356E-06		#927
			-5.00		229.18E-06		#855
			0.00		-20.288E-06		#783
			5.00		129.92E-06		#711
			10.00		116.64E-06		#639
			15.00		334.46E-06		#567
			20.00		338.03E-06		#495
			25.00		321.52E-06		#423
			30.00		-206.60E-06		#351
			35.00		506.11E-06		#279
			40.00		456.95E-06		#248
			45.00		156.21E-06		#217
			50.00		-238.53E-06		#186
			55.00		-165.60E-06		#155
			60.00		-126.18E-06		#124
			65.00		140.13E-06		#93
			70.00		230.82E-06		#62
			75.00		-358.29E-06		#31
		END_DATA
	END_SCAN  1
	BEGIN_SCAN  2
		TASK_NAME=DOSE
		GROUP_NAME=LR_37.6
		PROGRAM=BeamAdjust 2.3.0.25
		COMMENT=G000, E221_c-dhex3.6_4
		MEAS_DATE=08-Jun-2024 21:58:16
		LINAC=HIT
		MODALITY=P
		INPLANE_AXIS_DIR=TARGET_GUN
		CROSSPLANE_AXIS_DIR=LEFT_RIGHT
		DEPTH_AXIS_DIR=UP_DOWN
		ENERGY=0.00
		SSD=0.00
		FIELD_INPLANE=50.00
		FIELD_CROSSPLANE=50.00
		FIELD_TYPE=RECTANGULAR
		GANTRY=0.00
		GANTRY_UPRIGHT_POSITION=0
		GANTRY_ROTATION=CW
		COLL_ANGLE=90.00
		SCAN_DEVICE=OCTAVIUS_1600_XDR
		ELECTROMETER=DETECTOR_INTERFACE
		ELECTROMETER_SN=5987
		DETECTOR=OCTAVIUS_1600_XDR
		DETECTOR_SN=191760
		FILTER=FF
		SCAN_CURVETYPE=CROSSPLANE_PROFILE
		SCAN_DEPTH=0.00
		SCAN_OFFAXIS_INPLANE=-70.00
		SCAN_ANGLE=0.00
		SCAN_DIAGONAL=NOT_DIAGONAL
		MEAS_PRESET=TIME_PRESET
		MEAS_TIME=37.600
		MEAS_UNIT=GY
		PRESSURE=995.30
		TEMPERATURE=19.10
		NORM_TEMPERATURE=20.00
		CORRECTION_FACTOR=1.1270
		CALIBRATION_FILE=C:\Users\Public\Documents\PTW\Common Files\Calibration Files\230554201_OCTAVIUS1600XDR_191760.cal
		CORRECTIONS=AIR_DENSITY_CORR;FACTOR_CORR;
		BEGIN_DATA
			-75.00		115.71E-06		#1520
			-70.00		131.18E-06		#1489
			-65.00		153.60E-06		#1458
			-60.00		-11.644E-06		#1427
			-55.00		9.5812E-06		#1396
			-50.00		-69.738E-06		#1365
			-45.00		219.87E-06		#1334
			-40.00		18.383E-06		#1303
			-35.00		380.63E-06		#1272
			-30.00		37.564E-06		#1214
			-25.00		-189.90E-06		#1142
			-20.00		152.18E-06		#1070
			-15.00		-107.88E-06		#998
			-10.00		203.42E-06		#926
			-5.00		665.12E-06		#854
			0.00		169.19E-06		#782
			5.00		94.378E-06		#710
			10.00		373.16E-06		#638
			15.00		174.16E-06		#566
			20.00		-414.86E-06		#494
			25.00		373.84E-06		#422
			30.00		154.21E-06		#350
			35.00		-20.876E-06		#278
			40.00		106.42E-06		#247
			45.00		115.63E-06		#216
			50.00		227.29E-06		#185
			55.00		116.31E-06		#154
			60.00		381.80E-06		#123
			65.00		-1.3035E-06		#92
			70.00		245.67E-06		#61
			75.00		103.51E-06		#30
		END_DATA
	END_SCAN  2
	BEGIN_SCAN  3
		TASK_NAME=DOSE
		GROUP_NAME=LR_37.6
		PROGRAM=BeamAdjust 2.3.0.25
		COMMENT=G000, E221_c-dhex3.6_4
		MEAS_DATE=08-Jun-2024 21:58:16
		LINAC=HIT
		MODALITY=P
		INPLANE_AXIS_DIR=TARGET_GUN
		CROSSPLANE_AXIS_DIR=LEFT_RIGHT
		DEPTH_AXIS_DIR=UP_DOWN
		ENERGY=0.00
		SSD=0.00
		FIELD_INPLANE=50.00
		FIELD_CROSSPLANE=50.00
		FIELD_TYPE=RECTANGULAR
		GANTRY=0.00
		GANTRY_UPRIGHT_POSITION=0
		GANTRY_ROTATION=CW
		COLL_ANGLE=90.00
		SCAN_DEVICE=OCTAVIUS_1600_XDR
		ELECTROMETER=DETECTOR_INTERFACE
		ELECTROMETER_SN=5987
		DETECTOR=OCTAVIUS_1600_XDR
		DETECTOR_SN=191760
		FILTER=FF
		SCAN_CURVETYPE=CROSSPLANE_PROFILE
		SCAN_DEPTH=0.00
		SCAN_OFFAXIS_INPLANE=-65.00
		SCAN_ANGLE=0.00
		SCAN_DIAGONAL=NOT_DIAGONAL
		MEAS_PRESET=TIME_PRESET
		MEAS_TIME=37.600
		MEAS_UNIT=GY
		PRESSURE=995.30
		TEMPERATURE=19.10
		NORM_TEMPERATURE=20.00
		CORRECTION_FACTOR=1.1270
		CALIBRATION_FILE=C:\Users\Public\Documents\PTW\Common Files\Calibration Files\230554201_OCTAVIUS1600XDR_191760.cal
		CORRECTIONS=AIR_DENSITY_CORR;FACTOR_CORR;
		BEGIN_DATA
			-75.00		112.42E-06		#1519
			-70.00		-218.95E-06		#1488
			-65.00		180.60E-06		#1457
			-60.00		31.302E-06		#1426
			-55.00		54.964E-06		#1395
			-50.00		294.07E-06		#1364
			-45.00		175.88E-06		#1333
			-40.00		114.43E-06		#1302
			-35.00		160.40E-06		#1271
			-30.00		269.37E-06		#1213
			-25.00		176.30E-06		#1141
			-20.00		67.463E-06		#1069
			-15.00		473.02E-06		#997
			-10.00		325.05E-06		#925
			-5.00		398.66E-06		#853
			0.00		163.28E-06		#781
			5.00		248.49E-06		#709
			10.00		358.98E-06		#637
			15.00		59.067E-06		#565
			20.00		84.746E-06		#493
			25.00		215.21E-06		#421
			30.00		58.362E-06		#349
			35.00		306.53E-06		#277
			40.00		36.763E-06		#246
			45.00		393.88E-06		#215
			50.00		201.25E-06		#184
			55.00		-31.648E-06		#153
			60.00		126.35E-06		#122
			65.00		-101.81E-06		#91
			70.00		247.02E-06		#60
			75.00		129.88E-06		#29
		END_DATA
	END_SCAN  3
	BEGIN_SCAN  4
		TASK_NAME=DOSE
		GROUP_NAME=LR_37.6
		PROGRAM=BeamAdjust 2.3.0.25
		COMMENT=G000, E221_c-dhex3.6_4
		MEAS_DATE=08-Jun-2024 21:58:16
		LINAC=HIT
		MODALITY=P
		INPLANE_AXIS_DIR=TARGET_GUN
		CROSSPLANE_AXIS_DIR=LEFT_RIGHT
		DEPTH_AXIS_DIR=UP_DOWN
		ENERGY=0.00
		SSD=0.00
		FIELD_INPLANE=50.00
		FIELD_CROSSPLANE=50.00
		FIELD_TYPE=RECTANGULAR
		GANTRY=0.00
		GANTRY_UPRIGHT_POSITION=0
		GANTRY_ROTATION=CW
		COLL_ANGLE=90.00
		SCAN_DEVICE=OCTAVIUS_1600_XDR
		ELECTROMETER=DETECTOR_INTERFACE
		ELECTROMETER_SN=5987
		DETECTOR=OCTAVIUS_1600_XDR
		DETECTOR_SN=191760
		FILTER=FF
		SCAN_CURVETYPE=CROSSPLANE_PROFILE
		SCAN_DEPTH=0.00
		SCAN_OFFAXIS_INPLANE=-60.00
		SCAN_ANGLE=0.00
		SCAN_DIAGONAL=NOT_DIAGONAL
		MEAS_PRESET=TIME_PRESET
		MEAS_TIME=37.600
		MEAS_UNIT=GY
		PRESSURE=995.30
		TEMPERATURE=19.10
		NORM_TEMPERATURE=20.00
		CORRECTION_FACTOR=1.1270
		CALIBRATION_FILE=C:\Users\Public\Documents\PTW\Common Files\Calibration Files\230554201_OCTAVIUS1600XDR_191760.cal
		CORRECTIONS=AIR_DENSITY_CORR;FACTOR_CORR;
		BEGIN_DATA
			-75.00		165.93E-06		#1518
			-70.00		62.157E-06		#1487
			-65.00		206.79E-06		#1456
			-60.00		84.386E-06		#1425
			-55.00		175.79E-06		#1394
			-50.00		228.31E-06		#1363
			-45.00		145.35E-06		#1332
			-40.00		390.21E-06		#1301
			-35.00		286.10E-06		#1270
			-30.00		144.89E-06		#1212
			-25.00		350.90E-06		#1140
			-20.00		410.30E-06		#1068
			-15.00		239.43E-06		#996
			-10.00		419.16E-06		#924
			-5.00		558.71E-06		#852
			0.00		133.93E-06		#780
			5.00		395.82E-06		#708
			10.00		294.83E-06		#636
			15.00		432.09E-06		#564
			20.00		243.10E-06		#492
			25.00		247.56E-06		#420
			30.00		429.30E-06		#348
			35.00		-74.809E-06		#276
			40.00		348.54E-06		#245
			45.00		113.96E-06		#214
			50.00		118.82E-06		#183
			55.00		264.10E-06		#152
			60.00		105.39E-06		#121
			65.00		475.99E-06		#90
			70.00		-160.67E-06		#59
			75.00		464.68E-06		#28
		END_DATA
	END_SCAN  4
	BEGIN_SCAN  5
		TASK_NAME=DOSE
		GROUP_NAME=LR_37.6
		PROGRAM=BeamAdjust 2.3.0.25
		COMMENT=G000, E221_c-dhex3.6_4
		MEAS_DATE=08-Jun-2024 21:58:16
		LINAC=HIT
		MODALITY=P
		INPLANE_AXIS_DIR=TARGET_GUN
		CROSSPLANE_AXIS_DIR=LEFT_RIGHT
		DEPTH_AXIS_DIR=UP_DOWN
		ENERGY=0.00
		SSD=0.00
		FIELD_INPLANE=50.00
		FIELD_CROSSPLANE=50.00
		FIELD_TYPE=RECTANGULAR
		GANTRY=0.00
		GANTRY_UPRIGHT_POSITION=0
		GANTRY_ROTATION=CW
		COLL_ANGLE=90.00
		SCAN_DEVICE=OCTAVIUS_1600_XDR
		ELECTROMETER=DETECTOR_INTERFACE
		ELECTROMETER_SN=5987
		DETECTOR=OCTAVIUS_1600_XDR
		DETECTOR_SN=191760
		FILTER=FF
		SCAN_CURVETYPE=CROSSPLANE_PROFILE
		SCAN_DEPTH=0.00
		SCAN_OFFAXIS_INPLANE=-55.00
		SCAN_ANGLE=0.00
		SCAN_DIAGONAL=NOT_DIAGONAL
		MEAS_PRESET=TIME_PRESET
		MEAS_TIME=37.600
		MEAS_UNIT=GY
		PRESSURE=995.30
		TEMPERATURE=19.10
		NORM_TEMPERATURE=20.00
		CORRECTION_FACTOR=1.1270
		CALIBRATION_FILE=C:\Users\Public\Documents\PTW\Common Files\Calibration Files\230554201_OCTAVIUS1600XDR_191760.cal
		CORRECTIONS=AIR_DENSITY_CORR;FACTOR_CORR;
		BEGIN_DATA
			-75.00		16.553E-06		#1517
			-70.00		139.43E-06		#1486
			-65.00		104.91E-06		#1455
			-60.00		-24.987E-06		#1424
			-55.00		298.05E-06		#1393
			-50.00		30.345E-06		#1362
			-45.00		212.11E-06		#1331
			-40.00		221.52E-06		#1300
			-35.00		364.68E-06		#1269
			-30.00		493.46E-06		#1211
			-25.00		543.40E-06		#1139
			-20.00		314.68E-06		#1067
			-15.00		490.57E-06		#995
			-10.00		280.29E-06		#923
			-5.00		390.46E-06		#851
			0.00		379.71E-06		#779
			5.00		482.14E-06		#707
			10.00		567.94E-06		#635
			15.00		421.37E-06		#563
			20.00		504.17E-06		#491
			25.00		269.48E-06		#419
			30.00		260.07E-06		#347
			35.00		389.06E-06		#275
			40.00		118.69E-06		#244
			45.00		666.64E-06		#213
			50.00		265.33E-06		#182
			55.00		148.99E-06		#151
			60.00		100.11E-06		#120
			65.00		91.320E-06		#89
			70.00		-47.658E-06		#58
			75.00		-225.12E-06		#27
		END_DATA
	END_SCAN  5
	BEGIN_SCAN  6
		TASK_NAME=DOSE
		GROUP_NAME=LR_37.6
		PROGRAM=BeamAdjust 2.3.0.25
		COMMENT=G000, E221_c-dhex3.6_4
		MEAS_DATE=08-Jun-2024 21:58:16
		LINAC=HIT
		MODALITY=P
		INPLANE_AXIS_DIR=TARGET_GUN
		CROSSPLANE_AXIS_DIR=LEFT_RIGHT
		DEPTH_AXIS_DIR=UP_DOWN
		ENERGY=0.00
		SSD=0.00
		FIELD_INPLANE=50.00
		FIELD_CROSSPLANE=50.00
		FIELD_TYPE=RECTANGULAR
		GANTRY=0.00
		GANTRY_UPRIGHT_POSITION=0
		GANTRY_ROTATION=CW
		COLL_ANGLE=90.00
		SCAN_DEVICE=OCTAVIUS_1600_XDR
		ELECTROMETER=DETECTOR_INTERFACE
		ELECTROMETER_SN=5987
		DETECTOR=OCTAVIUS_1600_XDR
		DETECTOR_SN=191760
		FILTER=FF
		SCAN_CURVETYPE=CROSSPLANE_PROFILE
		SCAN_DEPTH=0.00
		SCAN_OFFAXIS_INPLANE=-50.00
		SCAN_ANGLE=0.00
		SCAN_DIAGONAL=NOT_DIAGONAL
		MEAS_PRESET=TIME_PRESET
		MEAS_TIME=37.600
		MEAS_UNIT=GY
		PRESSURE=995.30
		TEMPERATURE=19.10
		NORM_TEMPERATURE=20.00
		CORRECTION_FACTOR=1.1270
		CALIBRATION_FILE=C:\Users\Public\Documents\PTW\Common Files\Calibration Files\230554201_OCTAVIUS1600XDR_191760.cal
		CORRECTIONS=AIR_DENSITY_CORR;FACTOR_CORR;
		BEGIN_DATA
			-75.00		53.567E-06		#1516
			-70.00		98.793E-06		#1485
			-65.00		-84.114E-06		#1454
			-60.00		107.05E-06		#1423
			-55.00		-28.959E-06		#1392
			-50.00		230.78E-06		#1361
			-45.00		407.12E-06		#1330
			-40.00		566.91E-06		#1299
			-35.00		710.52E-06		#1268
			-30.00		1.1831E-03		#1210
			-25.00		958.83E-06		#1138
			-20.00		1.1608E-03		#1066
			-15.00		1.1307E-03		#994
			-10.00		1.0901E-03		#922
			-5.00		1.3470E-03		#850
			0.00		1.1684E-03		#778
			5.00		1.3148E-03		#706
			10.00		1.5360E-03		#634
			15.00		1.1628E-03		#562
			20.00		1.4912E-03		#490
			25.00		1.2756E-03		#418
			30.00		994.62E-06		#346
			35.00		765.50E-06		#274
			40.00		513.10E-06		#243
			45.00		-135.46E-06		#212
			50.00		-69.788E-06		#181
			55.00		259.94E-06		#150
			60.00		64.529E-06		#119
			65.00		91.708E-06		#88
			70.00		315.10E-06		#57
			75.00		-188.17E-06		#26
		END_DATA
	END_SCAN  6
	BEGIN_SCAN  7
		TASK_NAME=DOSE
		GROUP_NAME=LR_37.6
		PROGRAM=BeamAdjust 2.3.0.25
		COMMENT=G000, E221_c-dhex3.6_4
		MEAS_DATE=08-Jun-2024 21:58:16
		LINAC=HIT
		MODALITY=P
		INPLANE_AXIS_DIR=TARGET_GUN
		CROSSPLANE_AXIS_DIR=LEFT_RIGHT
		DEPTH_AXIS_DIR=UP_DOWN
		ENERGY=0.00
		SSD=0.00
		FIELD_INPLANE=50.00
		FIELD_CROSSPLANE=50.00
		FIELD_TYPE=RECTANGULAR
		GANTRY=0.00
		GANTRY_UPRIGHT_POSITION=0
		GANTRY_ROTATION=CW
		COLL_ANGLE=90.00
		SCAN_DEVICE=OCTAVIUS_1600_XDR
		ELECTROMETER=DETECTOR_INTERFACE
		ELECTROMETER_SN=5987
		DETECTOR=OCTAVIUS_1600_XDR
		DETECTOR_SN=191760
		FILTER=FF
		SCAN_CURVETYPE=CROSSPLANE_PROFILE
		SCAN_DEPTH=0.00
		SCAN_OFFAXIS_INPLANE=-45.00
		SCAN_ANGLE=0.00
		SCAN_DIAGONAL=NOT_DIAGONAL
		MEAS_PRESET=TIME_PRESET
		MEAS_TIME=37.600
		MEAS_UNIT=GY
		PRESSURE=995.30
		TEMPERATURE=19.10
		NORM_TEMPERATURE=20.00
		CORRECTION_FACTOR=1.1270
		CALIBRATION_FILE=C:\Users\Public\Documents\PTW\Common Files\Calibration Files\230554201_OCTAVIUS1600XDR_191760.cal
		CORRECTIONS=AIR_DENSITY_CORR;FACTOR_CORR;
		BEGIN_DATA
			-75.00		232.94E-06		#1515
			-70.00		-49.903E-06		#1484
			-65.00		92.282E-06		#1453
			-60.00		42.459E-06		#1422
			-55.00		85.829E-06		#1391
			-50.00		418.91E-06		#1360
			-45.00		786.23E-06		#1329
			-40.00		1.5272E-03		#1298
			-35.00		3.0163E-03		#1267
			-30.00		4.4751E-03		#1209
			-25.00		4.8001E-03		#1137
			-20.00		5.1567E-03		#1065
			-15.00		5.1697E-03		#993
			-10.00		5.2952E-03		#921
			-5.00		5.5441E-03		#849
			0.00		5.5154E-03		#777
			5.00		5.5576E-03		#705
			10.00		5.5499E-03		#633
			15.00		5.2676E-03		#561
			20.00		5.2651E-03		#489
			25.00		5.1429E-03		#417
			30.00		4.5712E-03		#345
			35.00		2.7039E-03		#273
			40.00		1.0957E-03		#242
			45.00		645.69E-06		#211
			50.00		243.54E-06		#180
			55.00		71.964E-06		#149
			60.00		168.62E-06		#118
			65.00		265.78E-06		#87
			70.00		13.893E-06		#56
			75.00		66.822E-06		#25
		END_DATA
	END_SCAN  7
	BEGIN_SCAN  8
		TASK_NAME=DOSE
		GROUP_NAME=LR_37.6
		PROGRAM=BeamAdjust 2.3.0.25
		COMMENT=G000, E221_c-dhex3.6_4
		MEAS_DATE=08-Jun-2024 21:58:16
		LINAC=HIT
		MODALITY=P
		INPLANE_AXIS_DIR=TARGET_GUN
		CROSSPLANE_AXIS_DIR=LEFT_RIGHT
		DEPTH_AXIS_DIR=UP_DOWN
		ENERGY=0.00
		SSD=0.00
		FIELD_INPLANE=50.00
		FIELD_CROSSPLANE=50.00
		FIELD_TYPE=RECTANGULAR
		GANTRY=0.00
		GANTRY_UPRIGHT_POSITION=0
		GANTRY_ROTATION=CW
		COLL_ANGLE=90.00
		SCAN_DEVICE=OCTAVIUS_1600_XDR
		ELECTROMETER=DETECTOR_INTERFACE
		ELECTROMETER_SN=5987
		DETECTOR=OCTAVIUS_1600_XDR
		DETECTOR_SN=191760
		FILTER=FF
		SCAN_CURVETYPE=CROSSPLANE_PROFILE
		SCAN_DEPTH=0.00
		SCAN_OFFAXIS_INPLANE=-40.00
		SCAN_ANGLE=0.00
		SCAN_DIAGONAL=NOT_DIAGONAL
		MEAS_PRESET=TIME_PRESET
		MEAS_TIME=37.600
		MEAS_UNIT=GY
		PRESSURE=995.30
		TEMPERATURE=19.10
		NORM_TEMPERATURE=20.00
		CORRECTION_FACTOR=1.1270
		CALIBRATION_FILE=C:\Users\Public\Documents\PTW\Common Files\Calibration Files\230554201_OCTAVIUS1600XDR_191760.cal
		CORRECTIONS=AIR_DENSITY_CORR;FACTOR_CORR;
		BEGIN_DATA
			-75.00		182.19E-06		#1514
			-70.00		91.790E-06		#1483
			-65.00		287.40E-06		#1452
			-60.00		-164.80E-06		#1421
			-55.00		487.94E-06		#1390
			-50.00		765.19E-06		#1359
			-45.00		1.8005E-03		#1328
			-40.00		7.0592E-03		#1297
			-35.00		15.900E-03		#1266
			-30.00		21.247E-03		#1208
			-25.00		22.833E-03		#1136
			-20.00		23.280E-03		#1064
			-15.00		23.757E-03		#992
			-10.00		23.440E-03		#920
			-5.00		23.697E-03		#848
			0.00		23.927E-03		#776
			5.00		24.213E-03		#704
			10.00		24.253E-03		#632
			15.00		24.200E-03		#560
			20.00		24.605E-03		#488
			25.00		23.874E-03		#416
			30.00		20.499E-03		#344
			35.00		12.061E-03		#272
			40.00		3.5658E-03		#241
			45.00		895.99E-06		#210
			50.00		77.981E-06		#179
			55.00		314.50E-06		#148
			60.00		154.26E-06		#117
			65.00		250.58E-06		#86
			70.00		98.942E-06		#55
			75.00		554.64E-06		#24
		END_DATA
	END_SCAN  8
	BEGIN_SCAN  9
		TASK_NAME=DOSE
		GROUP_NAME=LR_37.6
		PROGRAM=BeamAdjust 2.3.0.25
		COMMENT=G000, E221_c-dhex3.6_4
		MEAS_DATE=08-Jun-2024 21:58:16
		LINAC=HIT
		MODALITY=P
		INPLANE_AXIS_DIR=TARGET_GUN
		CROSSPLANE_AXIS_DIR=LEFT_RIGHT
		DEPTH_AXIS_DIR=UP_DOWN
		ENERGY=0.00
		SSD=0.00
		FIELD_INPLANE=50.00
		FIELD_CROSSPLANE=50.00
		FIELD_TYPE=RECTANGULAR
		GANTRY=0.00
		GANTRY_UPRIGHT_POSITION=0
		GANTRY_ROTATION=CW
		COLL_ANGLE=90.00
		SCAN_DEVICE=OCTAVIUS_1600_XDR
		ELECTROMETER=DETECTOR_INTERFACE
		ELECTROMETER_SN=5987
		DETECTOR=OCTAVIUS_1600_XDR
		DETECTOR_SN=191760
		FILTER=FF
		SCAN_CURVETYPE=CROSSPLANE_PROFILE
		SCAN_DEPTH=0.00
		SCAN_OFFAXIS_INPLANE=-35.00
		SCAN_ANGLE=0.00
		SCAN_DIAGONAL=NOT_DIAGONAL
		MEAS_PRESET=TIME_PRESET
		MEAS_TIME=37.600
		MEAS_UNIT=GY
		PRESSURE=995.30
		TEMPERATURE=19.10
		NORM_TEMPERATURE=20.00
		CORRECTION_FACTOR=1.1270
		CALIBRATION_FILE=C:\Users\Public\Documents\PTW\Common Files\Calibration Files\230554201_OCTAVIUS1600XDR_191760.cal
		CORRECTIONS=AIR_DENSITY_CORR;FACTOR_CORR;
		BEGIN_DATA
			-75.00		277.25E-06		#1513
			-70.00		-37.634E-06		#1482
			-65.00		328.05E-06		#1451
			-60.00		207.74E-06		#1420
			-55.00		309.19E-06		#1389
			-50.00		869.78E-06		#1358
			-45.00		4.3582E-03		#1327
			-40.00		18.313E-03		#1296
			-35.00		41.461E-03		#1265
			-30.00		54.149E-03		#1207
			-25.00		57.377E-03		#1135
			-20.00		57.967E-03		#1063
			-15.00		58.830E-03		#991
			-10.00		58.860E-03		#919
			-5.00		59.191E-03		#847
			0.00		59.321E-03		#775
			5.00		59.147E-03		#703
			10.00		59.730E-03		#631
			15.00		59.224E-03		#559
			20.00		60.006E-03		#487
			25.00		59.000E-03		#415
			30.00		51.014E-03		#343
			35.00		28.351E-03		#271
			40.00		7.9716E-03		#240
			45.00		1.4164E-03		#209
			50.00		100.25E-06		#178
			55.00		114.89E-06		#147
			60.00		212.11E-06		#116
			65.00		170.01E-06		#85
			70.00		144.57E-06		#54
			75.00		-179.83E-06		#23
		END_DATA
	END_SCAN  9
	BEGIN_SCAN  10
		TASK_NAME=DOSE
		GROUP_NAME=LR_37.6
		PROGRAM=BeamAdjust 2.3.0.25
		COMMENT=G000, E221_c-dhex3.6_4
		MEAS_DATE=08-Jun-2024 21:58:16
		LINAC=HIT
		MODALITY=P
		INPLANE_AXIS_DIR=TARGET_GUN
		CROSSPLANE_AXIS_DIR=LEFT_RIGHT
		DEPTH_AXIS_DIR=UP_DOWN
		ENERGY=0.00
		SSD=0.00
		FIELD_INPLANE=50.00
		FIELD_CROSSPLANE=50.00
		FIELD_TYPE=RECTANGULAR
		GANTRY=0.00
		GANTRY_UPRIGHT_POSITION=0
		GANTRY_ROTATION=CW
		COLL_ANGLE=90.00
		SCAN_DEVICE=OCTAVIUS_1600_XDR
		ELECTROMETER=DETECTOR_INTERFACE
		ELECTROMETER_SN=5987
		DETECTOR=OCTAVIUS_1600_XDR
		DETECTOR_SN=191760
		FILTER=FF
		SCAN_CURVETYPE=CROSSPLANE_PROFILE
		SCAN_DEPTH=0.00
		SCAN_OFFAXIS_INPLANE=-32.50
		SCAN_ANGLE=0.00
		SCAN_DIAGONAL=NOT_DIAGONAL
		MEAS_PRESET=TIME_PRESET
		MEAS_TIME=37.600
		MEAS_UNIT=GY
		PRESSURE=995.30
		TEMPERATURE=19.10
		NORM_TEMPERATURE=20.00
		CORRECTION_FACTOR=1.1270
		CALIBRATION_FILE=C:\Users\Public\Documents\PTW\Common Files\Calibration Files\230554201_OCTAVIUS1600XDR_191760.cal
		CORRECTIONS=AIR_DENSITY_CORR;FACTOR_CORR;
		BEGIN_DATA
			-32.50		62.366E-03		#1242
			-30.00		67.965E-03		#1206
			-27.50		70.731E-03		#1170
			-25.00		71.766E-03		#1134
			-22.50		71.821E-03		#1098
			-20.00		72.611E-03		#1062
			-17.50		73.036E-03		#1026
			-15.00		72.940E-03		#990
			-12.50		72.982E-03		#954
			-10.00		73.044E-03		#918
			-7.50		73.111E-03		#882
			-5.00		73.265E-03		#846
			-2.50		73.414E-03		#810
			0.00		73.336E-03		#774
			2.50		72.868E-03		#738
			5.00		73.641E-03		#702
			7.50		72.890E-03		#666
			10.00		73.528E-03		#630
			12.50		73.644E-03		#594
			15.00		73.319E-03		#558
			17.50		74.154E-03		#522
			20.00		73.960E-03		#486
			22.50		73.825E-03		#450
			25.00		72.509E-03		#414
			27.50		69.311E-03		#378
			30.00		62.493E-03		#342
			32.50		49.724E-03		#306
		END_DATA
	END_SCAN  10
	BEGIN_SCAN  11
		TASK_NAME=DOSE
		GROUP_NAME=LR_37.6
		PROGRAM=BeamAdjust 2.3.0.25
		COMMENT=G000, E221_c-dhex3.6_4
		MEAS_DATE=08-Jun-2024 21:58:16
		LINAC=HIT
		MODALITY=P
		INPLANE_AXIS_DIR=TARGET_GUN
		CROSSPLANE_AXIS_DIR=LEFT_RIGHT
		DEPTH_AXIS_DIR=UP_DOWN
		ENERGY=0.00
		SSD=0.00
		FIELD_INPLANE=50.00
		FIELD_CROSSPLANE=50.00
		FIELD_TYPE=RECTANGULAR
		GANTRY=0.00
		GANTRY_UPRIGHT_POSITION=0
		GANTRY_ROTATION=CW
		COLL_ANGLE=90.00
		SCAN_DEVICE=OCTAVIUS_1600_XDR
		ELECTROMETER=DETECTOR_INTERFACE
		ELECTROMETER_SN=5987
		DETECTOR=OCTAVIUS_1600_XDR
		DETECTOR_SN=191760
		FILTER=FF
		SCAN_CURVETYPE=CROSSPLANE_PROFILE
		SCAN_DEPTH=0.00
		SCAN_OFFAXIS_INPLANE=-30.00
		SCAN_ANGLE=0.00
		SCAN_DIAGONAL=NOT_DIAGONAL
		MEAS_PRESET=TIME_PRESET
		MEAS_TIME=37.600
		MEAS_UNIT=GY
		PRESSURE=995.30
		TEMPERATURE=19.10
		NORM_TEMPERATURE=20.00
		CORRECTION_FACTOR=1.1270
		CALIBRATION_FILE=C:\Users\Public\Documents\PTW\Common Files\Calibration Files\230554201_OCTAVIUS1600XDR_191760.cal
		CORRECTIONS=AIR_DENSITY_CORR;FACTOR_CORR;
		BEGIN_DATA
			-75.00		157.01E-06		#1512
			-70.00		187.17E-06		#1481
			-65.00		11.598E-06		#1450
			-60.00		167.35E-06		#1419
			-55.00		533.96E-06		#1388
			-50.00		1.0878E-03		#1357
			-45.00		5.7117E-03		#1326
			-40.00		25.995E-03		#1295
			-35.00		59.046E-03		#1264
			-32.50		70.361E-03		#1241
			-30.00		76.187E-03		#1205
			-27.50		78.582E-03		#1169
			-25.00		80.348E-03		#1133
			-22.50		80.605E-03		#1097
			-20.00		81.239E-03		#1061
			-17.50		81.666E-03		#1025
			-15.00		81.659E-03		#989
			-12.50		81.693E-03		#953
			-10.00		81.142E-03		#917
			-7.50		81.842E-03		#881
			-5.00		81.506E-03		#845
			-2.50		81.755E-03		#809
			0.00		81.673E-03		#773
			2.50		81.976E-03		#737
			5.00		81.221E-03		#701
			7.50		82.109E-03		#665
			10.00		81.094E-03		#629
			12.50		81.653E-03		#593
			15.00		81.870E-03		#557
			17.50		81.913E-03		#521
			20.00		82.200E-03		#485
			22.50		81.508E-03		#449
			25.00		80.545E-03		#413
			27.50		76.915E-03		#377
			30.00		68.517E-03		#341
			32.50		55.573E-03		#305
			35.00		37.751E-03		#270
			40.00		10.847E-03		#239
			45.00		2.0559E-03		#208
			50.00		522.54E-06		#177
			55.00		351.16E-06		#146
			60.00		105.56E-06		#115
			65.00		135.04E-06		#84
			70.00		125.43E-06		#53
			75.00		-444.79E-06		#22
		END_DATA
	END_SCAN  11
	BEGIN_SCAN  12
		TASK_NAME=DOSE
		GROUP_NAME=LR_37.6
		PROGRAM=BeamAdjust 2.3.0.25
		COMMENT=G000, E221_c-dhex3.6_4
		MEAS_DATE=08-Jun-2024 21:58:16
		LINAC=HIT
		MODALITY=P
		INPLANE_AXIS_DIR=TARGET_GUN
		CROSSPLANE_AXIS_DIR=LEFT_RIGHT
		DEPTH_AXIS_DIR=UP_DOWN
		ENERGY=0.00
		SSD=0.00
		FIELD_INPLANE=50.00
		FIELD_CROSSPLANE=50.00
		FIELD_TYPE=RECTANGULAR
		GANTRY=0.00
		GANTRY_UPRIGHT_POSITION=0
		GANTRY_ROTATION=CW
		COLL_ANGLE=90.00
		SCAN_DEVICE=OCTAVIUS_1600_XDR
		ELECTROMETER=DETECTOR_INTERFACE
		ELECTROMETER_SN=5987
		DETECTOR=OCTAVIUS_1600_XDR
		DETECTOR_SN=191760
		FILTER=FF
		SCAN_CURVETYPE=CROSSPLANE_PROFILE
		SCAN_DEPTH=0.00
		SCAN_OFFAXIS_INPLANE=-27.50
		SCAN_ANGLE=0.00
		SCAN_DIAGONAL=NOT_DIAGONAL
		MEAS_PRESET=TIME_PRESET
		MEAS_TIME=37.600
		MEAS_UNIT=GY
		PRESSURE=995.30
		TEMPERATURE=19.10
		NORM_TEMPERATURE=20.00
		CORRECTION_FACTOR=1.1270
		CALIBRATION_FILE=C:\Users\Public\Documents\PTW\Common Files\Calibration Files\230554201_OCTAVIUS1600XDR_191760.cal
		CORRECTIONS=AIR_DENSITY_CORR;FACTOR_CORR;
		BEGIN_DATA
			-32.50		73.445E-03		#1240
			-30.00		80.529E-03		#1204
			-27.50		82.674E-03		#1168
			-25.00		84.781E-03		#1132
			-22.50		85.266E-03		#1096
			-20.00		85.171E-03		#1060
			-17.50		85.261E-03		#1024
			-15.00		86.273E-03		#988
			-12.50		85.776E-03		#952
			-10.00		85.976E-03		#916
			-7.50		85.785E-03		#880
			-5.00		85.653E-03		#844
			-2.50		85.363E-03		#808
			0.00		85.694E-03		#772
			2.50		86.146E-03		#736
			5.00		85.839E-03		#700
			7.50		86.168E-03		#664
			10.00		85.743E-03		#628
			12.50		85.631E-03		#592
			15.00		85.463E-03		#556
			17.50		86.032E-03		#520
			20.00		86.013E-03		#484
			22.50		85.090E-03		#448
			25.00		83.808E-03		#412
			27.50		80.113E-03		#376
			30.00		71.493E-03		#340
			32.50		57.423E-03		#304
		END_DATA
	END_SCAN  12
	BEGIN_SCAN  13
		TASK_NAME=DOSE
		GROUP_NAME=LR_37.6
		PROGRAM=BeamAdjust 2.3.0.25
		COMMENT=G000, E221_c-dhex3.6_4
		MEAS_DATE=08-Jun-2024 21:58:16
		LINAC=HIT
		MODALITY=P
		INPLANE_AXIS_DIR=TARGET_GUN
		CROSSPLANE_AXIS_DIR=LEFT_RIGHT
		DEPTH_AXIS_DIR=UP_DOWN
		ENERGY=0.00
		SSD=0.00
		FIELD_INPLANE=50.00
		FIELD_CROSSPLANE=50.00
		FIELD_TYPE=RECTANGULAR
		GANTRY=0.00
		GANTRY_UPRIGHT_POSITION=0
		GANTRY_ROTATION=CW
		COLL_ANGLE=90.00
		SCAN_DEVICE=OCTAVIUS_1600_XDR
		ELECTROMETER=DETECTOR_INTERFACE
		ELECTROMETER_SN=5987
		DETECTOR=OCTAVIUS_1600_XDR
		DETECTOR_SN=191760
		FILTER=FF
		SCAN_CURVETYPE=CROSSPLANE_PROFILE
		SCAN_DEPTH=0.00
		SCAN_OFFAXIS_INPLANE=-25.00
		SCAN_ANGLE=0.00
		SCAN_DIAGONAL=NOT_DIAGONAL
		MEAS_PRESET=TIME_PRESET
		MEAS_TIME=37.600
		MEAS_UNIT=GY
		PRESSURE=995.30
		TEMPERATURE=19.10
		NORM_TEMPERATURE=20.00
		CORRECTION_FACTOR=1.1270
		CALIBRATION_FILE=C:\Users\Public\Documents\PTW\Common Files\Calibration Files\230554201_OCTAVIUS1600XDR_191760.cal
		CORRECTIONS=AIR_DENSITY_CORR;FACTOR_CORR;
		BEGIN_DATA
			-75.00		43.690E-06		#1511
			-70.00		199.54E-06		#1480
			-65.00		254.18E-06		#1449
			-60.00		349.62E-06		#1418
			-55.00		271.34E-06		#1387
			-50.00		1.3945E-03		#1356
			-45.00		6.5617E-03		#1325
			-40.00		27.951E-03		#1294
			-35.00		63.608E-03		#1263
			-32.50		75.596E-03		#1239
			-30.00		82.511E-03		#1203
			-27.50		84.940E-03		#1167
			-25.00		86.250E-03		#1131
			-22.50		86.907E-03		#1095
			-20.00		86.825E-03		#1059
			-17.50		87.813E-03		#1023
			-15.00		87.540E-03		#987
			-12.50		88.115E-03		#951
			-10.00		87.181E-03		#915
			-7.50		87.590E-03		#879
			-5.00		87.503E-03		#843
			-2.50		87.314E-03		#807
			0.00		86.874E-03		#771
			2.50		87.519E-03		#735
			5.00		86.859E-03		#699
			7.50		87.156E-03		#663
			10.00		87.173E-03		#627
			12.50		87.612E-03		#591
			15.00		87.511E-03		#555
			17.50		87.451E-03		#519
			20.00		87.708E-03		#483
			22.50		86.642E-03		#447
			25.00		85.453E-03		#411
			27.50		80.938E-03		#375
			30.00		73.291E-03		#339
			32.50		58.498E-03		#303
			35.00		40.598E-03		#269
			40.00		11.266E-03		#238
			45.00		2.6678E-03		#207
			50.00		625.03E-06		#176
			55.00		608.25E-06		#145
			60.00		245.43E-06		#114
			65.00		160.00E-06		#83
			70.00		3.6064E-06		#52
			75.00		169.72E-06		#21
		END_DATA
	END_SCAN  13
	BEGIN_SCAN  14
		TASK_NAME=DOSE
		GROUP_NAME=LR_37.6
		PROGRAM=BeamAdjust 2.3.0.25
		COMMENT=G000, E221_c-dhex3.6_4
		MEAS_DATE=08-Jun-2024 21:58:16
		LINAC=HIT
		MODALITY=P
		INPLANE_AXIS_DIR=TARGET_GUN
		CROSSPLANE_AXIS_DIR=LEFT_RIGHT
		DEPTH_AXIS_DIR=UP_DOWN
		ENERGY=0.00
		SSD=0.00
		FIELD_INPLANE=50.00
		FIELD_CROSSPLANE=50.00
		FIELD_TYPE=RECTANGULAR
		GANTRY=0.00
		GANTRY_UPRIGHT_POSITION=0
		GANTRY_ROTATION=CW
		COLL_ANGLE=90.00
		SCAN_DEVICE=OCTAVIUS_1600_XDR
		ELECTROMETER=DETECTOR_INTERFACE
		ELECTROMETER_SN=5987
		DETECTOR=OCTAVIUS_1600_XDR
		DETECTOR_SN=191760
		FILTER=FF
		SCAN_CURVETYPE=CROSSPLANE_PROFILE
		SCAN_DEPTH=0.00
		SCAN_OFFAXIS_INPLANE=-22.50
		SCAN_ANGLE=0.00
		SCAN_DIAGONAL=NOT_DIAGONAL
		MEAS_PRESET=TIME_PRESET
		MEAS_TIME=37.600
		MEAS_UNIT=GY
		PRESSURE=995.30
		TEMPERATURE=19.10
		NORM_TEMPERATURE=20.00
		CORRECTION_FACTOR=1.1270
		CALIBRATION_FILE=C:\Users\Public\Documents\PTW\Common Files\Calibration Files\230554201_OCTAVIUS1600XDR_191760.cal
		CORRECTIONS=AIR_DENSITY_CORR;FACTOR_CORR;
		BEGIN_DATA
			-32.50		75.441E-03		#1238
			-30.00		82.580E-03		#1202
			-27.50		85.460E-03		#1166
			-25.00		86.805E-03		#1130
			-22.50		87.522E-03		#1094
			-20.00		88.337E-03		#1058
			-17.50		87.856E-03		#1022
			-15.00		87.723E-03		#986
			-12.50		87.683E-03		#950
			-10.00		88.382E-03		#914
			-7.50		87.973E-03		#878
			-5.00		87.691E-03		#842
			-2.50		87.727E-03		#806
			0.00		87.676E-03		#770
			2.50		88.289E-03		#734
			5.00		87.855E-03		#698
			7.50		88.266E-03		#662
			10.00		87.317E-03		#626
			12.50		87.917E-03		#590
			15.00		88.057E-03		#554
			17.50		87.660E-03		#518
			20.00		87.583E-03		#482
			22.50		87.373E-03		#446
			25.00		85.282E-03		#410
			27.50		81.796E-03		#374
			30.00		73.353E-03		#338
			32.50		58.799E-03		#302
		END_DATA
	END_SCAN  14
	BEGIN_SCAN  15
		TASK_NAME=DOSE
		GROUP_NAME=LR_37.6
		PROGRAM=BeamAdjust 2.3.0.25
		COMMENT=G000, E221_c-dhex3.6_4
		MEAS_DATE=08-Jun-2024 21:58:16
		LINAC=HIT
		MODALITY=P
		INPLANE_AXIS_DIR=TARGET_GUN
		CROSSPLANE_AXIS_DIR=LEFT_RIGHT
		DEPTH_AXIS_DIR=UP_DOWN
		ENERGY=0.00
		SSD=0.00
		FIELD_INPLANE=50.00
		FIELD_CROSSPLANE=50.00
		FIELD_TYPE=RECTANGULAR
		GANTRY=0.00
		GANTRY_UPRIGHT_POSITION=0
		GANTRY_ROTATION=CW
		COLL_ANGLE=90.00
		SCAN_DEVICE=OCTAVIUS_1600_XDR
		ELECTROMETER=DETECTOR_INTERFACE
		ELECTROMETER_SN=5987
		DETECTOR=OCTAVIUS_1600_XDR
		DETECTOR_SN=191760
		FILTER=FF
		SCAN_CURVETYPE=CROSSPLANE_PROFILE
		SCAN_DEPTH=0.00
		SCAN_OFFAXIS_INPLANE=-20.00
		SCAN_ANGLE=0.00
		SCAN_DIAGONAL=NOT_DIAGONAL
		MEAS_PRESET=TIME_PRESET
		MEAS_TIME=37.600
		MEAS_UNIT=GY
		PRESSURE=995.30
		TEMPERATURE=19.10
		NORM_TEMPERATURE=20.00
		CORRECTION_FACTOR=1.1270
		CALIBRATION_FILE=C:\Users\Public\Documents\PTW\Common Files\Calibration Files\230554201_OCTAVIUS1600XDR_191760.cal
		CORRECTIONS=AIR_DENSITY_CORR;FACTOR_CORR;
		BEGIN_DATA
			-75.00		254.82E-06		#1510
			-70.00		299.76E-06		#1479
			-65.00		265.71E-06		#1448
			-60.00		-49.484E-06		#1417
			-55.00		287.01E-06		#1386
			-50.00		1.0078E-03		#1355
			-45.00		6.6096E-03		#1324
			-40.00		28.445E-03		#1293
			-35.00		63.712E-03		#1262
			-32.50		75.863E-03		#1237
			-30.00		82.608E-03		#1201
			-27.50		85.637E-03		#1165
			-25.00		87.816E-03		#1129
			-22.50		88.201E-03		#1093
			-20.00		87.885E-03		#1057
			-17.50		88.119E-03		#1021
			-15.00		89.097E-03		#985
			-12.50		88.660E-03		#949
			-10.00		88.416E-03		#913
			-7.50		89.085E-03		#877
			-5.00		88.438E-03		#841
			-2.50		88.248E-03		#805
			0.00		88.087E-03		#769
			2.50		88.012E-03		#733
			5.00		88.070E-03		#697
			7.50		87.868E-03		#661
			10.00		88.332E-03		#625
			12.50		88.594E-03		#589
			15.00		88.050E-03		#553
			17.50		88.410E-03		#517
			20.00		88.379E-03		#481
			22.50		87.365E-03		#445
			25.00		86.288E-03		#409
			27.50		82.068E-03		#373
			30.00		73.138E-03		#337
			32.50		59.397E-03		#301
			35.00		40.936E-03		#268
			40.00		11.939E-03		#237
			45.00		2.4586E-03		#206
			50.00		820.38E-06		#175
			55.00		594.47E-06		#144
			60.00		427.63E-06		#113
			65.00		-45.050E-06		#82
			70.00		124.15E-06		#51
			75.00		165.43E-06		#20
		END_DATA
	END_SCAN  15
	BEGIN_SCAN  16
		TASK_NAME=DOSE
		GROUP_NAME=LR_37.6
