BEGIN_SCAN_DATA
	FORMAT=CC-Export V1.9                  
	FILE_CREATION_DATE=08-Jun-2024 21:59:24
	LAST_MODIFIED=08-Jun-2024 21:59:24
	BEGIN_SCAN  1
		TASK_NAME=DOSE
		GROUP_NAME=LR_25.6
		PROGRAM=BeamAdjust 2.3.0.25
		COMMENT=G000, E221_c-dhex3.6_4
		MEAS_DATE=08-Jun-2024 21:59:05
		LINAC=HIT
		MODALITY=P
		INPLANE_AXIS_DIR=TARGET_GUN
		CROSSPLANE_AXIS_DIR=LEFT_RIGHT
		DEPTH_AXIS_DIR=UP_DOWN
		ENERGY=0.00
		SSD=0.00
		FIELD_INPLANE=50.00
		FIELD_CROSSPLANE=50.00
		FIELD_TYPE=RECTANGULAR
		GANTRY=0.00
		GANTRY_UPRIGHT_POSITION=0
		GANTRY_ROTATION=CW
		COLL_ANGLE=90.00
		SCAN_DEVICE=OCTAVIUS_1600_XDR
		ELECTROMETER=DETECTOR_INTERFACE
		ELECTROMETER_SN=5987
		DETECTOR=OCTAVIUS_1600_XDR
		DETECTOR_SN=191760
		FILTER=FF
		SCAN_CURVETYPE=CROSSPLANE_PROFILE
		SCAN_DEPTH=0.00
		SCAN_OFFAXIS_INPLANE=-75.00
		SCAN_ANGLE=0.00
		SCAN_DIAGONAL=NOT_DIAGONAL
		MEAS_PRESET=TIME_PRESET
		MEAS_TIME=25.600
		MEAS_UNIT=GY
		PRESSURE=995.30
		TEMPERATURE=19.10
		NORM_TEMPERATURE=20.00
		CORRECTION_FACTOR=1.1270
		CALIBRATION_FILE=C:\Users\Public\Documents\PTW\Common Files\Calibration Files\230554201_OCTAVIUS1600XDR_191760.cal
		CORRECTIONS=AIR_DENSITY_CORR;FACTOR_CORR;
		BEGIN_DATA
			-75.00		58.893E-06		#1521
			-70.00		54.162E-06		#1490
			-65.00		-57.050E-06		#1459
			-60.00		-53.136E-06		#1428
			-55.00		-117.87E-06		#1397
			-50.00		-32.039E-06		#1366
			-45.00		-136.57E-06		#1335
			-40.00		136.05E-06		#1304
			-35.00		-38.151E-06		#1273
			-30.00		124.30E-06		#1215
			-25.00		244.34E-06		#1143
			-20.00		117.21E-06		#1071
			-15.00		221.51E-06		#999
			-10.00		-24.678E-06		#927
			-5.00		18.335E-06		#855
			0.00		-30.874E-06		#783
			5.00		210.26E-06		#711
			10.00		2.0067E-06		#639
			15.00		78.809E-06		#567
			20.00		27.046E-06		#495
			25.00		194.04E-06		#423
			30.00		-191.60E-06		#351
			35.00		327.72E-06		#279
			40.00		337.13E-06		#248
			45.00		27.997E-06		#217
			50.00		-92.796E-06		#186
			55.00		216.20E-06		#155
			60.00		-102.46E-06		#124
			65.00		115.83E-06		#93
			70.00		261.77E-06		#62
			75.00		-307.68E-06		#31
		END_DATA
	END_SCAN  1
	BEGIN_SCAN  2
		TASK_NAME=DOSE
		GROUP_NAME=LR_25.6
		PROGRAM=BeamAdjust 2.3.0.25
		COMMENT=G000, E221_c-dhex3.6_4
		MEAS_DATE=08-Jun-2024 21:59:05
		LINAC=HIT
		MODALITY=P
		INPLANE_AXIS_DIR=TARGET_GUN
		CROSSPLANE_AXIS_DIR=LEFT_RIGHT
		DEPTH_AXIS_DIR=UP_DOWN
		ENERGY=0.00
		SSD=0.00
		FIELD_INPLANE=50.00
		FIELD_CROSSPLANE=50.00
		FIELD_TYPE=RECTANGULAR
		GANTRY=0.00
		GANTRY_UPRIGHT_POSITION=0
		GANTRY_ROTATION=CW
		COLL_ANGLE=90.00
		SCAN_DEVICE=OCTAVIUS_1600_XDR
		ELECTROMETER=DETECTOR_INTERFACE
		ELECTROMETER_SN=5987
		DETECTOR=OCTAVIUS_1600_XDR
		DETECTOR_SN=191760
		FILTER=FF
		SCAN_CURVETYPE=CROSSPLANE_PROFILE
		SCAN_DEPTH=0.00
		SCAN_OFFAXIS_INPLANE=-70.00
		SCAN_ANGLE=0.00
		SCAN_DIAGONAL=NOT_DIAGONAL
		MEAS_PRESET=TIME_PRESET
		MEAS_TIME=25.600
		MEAS_UNIT=GY
		PRESSURE=995.30
		TEMPERATURE=19.10
		NORM_TEMPERATURE=20.00
		CORRECTION_FACTOR=1.1270
		CALIBRATION_FILE=C:\Users\Public\Documents\PTW\Common Files\Calibration Files\230554201_OCTAVIUS1600XDR_191760.cal
		CORRECTIONS=AIR_DENSITY_CORR;FACTOR_CORR;
		BEGIN_DATA
			-75.00		96.651E-06		#1520
			-70.00		114.63E-06		#1489
			-65.00		-21.600E-06		#1458
			-60.00		-74.346E-06		#1427
			-55.00		45.646E-06		#1396
			-50.00		28.792E-06		#1365
			-45.00		202.81E-06		#1334
			-40.00		-35.653E-06		#1303
			-35.00		264.03E-06		#1272
			-30.00		201.13E-06		#1214
			-25.00		-103.35E-06		#1142
			-20.00		75.983E-06		#1070
			-15.00		-3.5425E-06		#998
			-10.00		75.778E-06		#926
			-5.00		333.21E-06		#854
			0.00		308.31E-06		#782
			5.00		23.566E-06		#710
			10.00		98.783E-06		#638
			15.00		96.757E-06		#566
			20.00		-141.51E-06		#494
			25.00		214.06E-06		#422
			30.00		67.247E-06		#350
			35.00		38.433E-06		#278
			40.00		2.2034E-06		#247
			45.00		-4.6398E-06		#216
			50.00		103.99E-06		#185
			55.00		46.449E-06		#154
			60.00		151.85E-06		#123
			65.00		-32.532E-06		#92
			70.00		36.629E-06		#61
			75.00		81.404E-06		#30
		END_DATA
	END_SCAN  2
	BEGIN_SCAN  3
		TASK_NAME=DOSE
		GROUP_NAME=LR_25.6
		PROGRAM=BeamAdjust 2.3.0.25
		COMMENT=G000, E221_c-dhex3.6_4
		MEAS_DATE=08-Jun-2024 21:59:05
		LINAC=HIT
		MODALITY=P
		INPLANE_AXIS_DIR=TARGET_GUN
		CROSSPLANE_AXIS_DIR=LEFT_RIGHT
		DEPTH_AXIS_DIR=UP_DOWN
		ENERGY=0.00
		SSD=0.00
		FIELD_INPLANE=50.00
		FIELD_CROSSPLANE=50.00
		FIELD_TYPE=RECTANGULAR
		GANTRY=0.00
		GANTRY_UPRIGHT_POSITION=0
		GANTRY_ROTATION=CW
		COLL_ANGLE=90.00
		SCAN_DEVICE=OCTAVIUS_1600_XDR
		ELECTROMETER=DETECTOR_INTERFACE
		ELECTROMETER_SN=5987
		DETECTOR=OCTAVIUS_1600_XDR
		DETECTOR_SN=191760
		FILTER=FF
		SCAN_CURVETYPE=CROSSPLANE_PROFILE
		SCAN_DEPTH=0.00
		SCAN_OFFAXIS_INPLANE=-65.00
		SCAN_ANGLE=0.00
		SCAN_DIAGONAL=NOT_DIAGONAL
		MEAS_PRESET=TIME_PRESET
		MEAS_TIME=25.600
		MEAS_UNIT=GY
		PRESSURE=995.30
		TEMPERATURE=19.10
		NORM_TEMPERATURE=20.00
		CORRECTION_FACTOR=1.1270
		CALIBRATION_FILE=C:\Users\Public\Documents\PTW\Common Files\Calibration Files\230554201_OCTAVIUS1600XDR_191760.cal
		CORRECTIONS=AIR_DENSITY_CORR;FACTOR_CORR;
		BEGIN_DATA
			-75.00		21.424E-06		#1519
			-70.00		-42.214E-06		#1488
			-65.00		47.218E-06		#1457
			-60.00		41.206E-06		#1426
			-55.00		154.46E-06		#1395
			-50.00		246.82E-06		#1364
			-45.00		36.344E-06		#1333
			-40.00		15.605E-06		#1302
			-35.00		262.80E-06		#1271
			-30.00		83.777E-06		#1213
			-25.00		85.522E-06		#1141
			-20.00		-8.3049E-06		#1069
			-15.00		107.47E-06		#997
			-10.00		156.37E-06		#925
			-5.00		325.44E-06		#853
			0.00		255.35E-06		#781
			5.00		144.12E-06		#709
			10.00		207.80E-06		#637
			15.00		194.67E-06		#565
			20.00		-9.7497E-06		#493
			25.00		202.05E-06		#421
			30.00		-16.410E-06		#349
			35.00		328.05E-06		#277
			40.00		-89.041E-06		#246
			45.00		354.76E-06		#215
			50.00		182.59E-06		#184
			55.00		58.321E-06		#153
			60.00		148.87E-06		#122
			65.00		14.562E-06		#91
			70.00		58.676E-06		#60
			75.00		-67.309E-06		#29
		END_DATA
	END_SCAN  3
	BEGIN_SCAN  4
		TASK_NAME=DOSE
		GROUP_NAME=LR_25.6
		PROGRAM=BeamAdjust 2.3.0.25
		COMMENT=G000, E221_c-dhex3.6_4
		MEAS_DATE=08-Jun-2024 21:59:05
		LINAC=HIT
		MODALITY=P
		INPLANE_AXIS_DIR=TARGET_GUN
		CROSSPLANE_AXIS_DIR=LEFT_RIGHT
		DEPTH_AXIS_DIR=UP_DOWN
		ENERGY=0.00
		SSD=0.00
		FIELD_INPLANE=50.00
		FIELD_CROSSPLANE=50.00
		FIELD_TYPE=RECTANGULAR
		GANTRY=0.00
		GANTRY_UPRIGHT_POSITION=0
		GANTRY_ROTATION=CW
		COLL_ANGLE=90.00
		SCAN_DEVICE=OCTAVIUS_1600_XDR
		ELECTROMETER=DETECTOR_INTERFACE
		ELECTROMETER_SN=5987
		DETECTOR=OCTAVIUS_1600_XDR
		DETECTOR_SN=191760
		FILTER=FF
		SCAN_CURVETYPE=CROSSPLANE_PROFILE
		SCAN_DEPTH=0.00
		SCAN_OFFAXIS_INPLANE=-60.00
		SCAN_ANGLE=0.00
		SCAN_DIAGONAL=NOT_DIAGONAL
		MEAS_PRESET=TIME_PRESET
		MEAS_TIME=25.600
		MEAS_UNIT=GY
		PRESSURE=995.30
		TEMPERATURE=19.10
		NORM_TEMPERATURE=20.00
		CORRECTION_FACTOR=1.1270
		CALIBRATION_FILE=C:\Users\Public\Documents\PTW\Common Files\Calibration Files\230554201_OCTAVIUS1600XDR_191760.cal
		CORRECTIONS=AIR_DENSITY_CORR;FACTOR_CORR;
		BEGIN_DATA
			-75.00		121.93E-06		#1518
			-70.00		24.334E-06		#1487
			-65.00		97.107E-06		#1456
			-60.00		81.558E-06		#1425
			-55.00		210.93E-06		#1394
			-50.00		169.03E-06		#1363
			-45.00		816.07E-09		#1332
			-40.00		209.81E-06		#1301
			-35.00		143.28E-06		#1270
			-30.00		28.277E-06		#1212
			-25.00		181.52E-06		#1140
			-20.00		231.58E-06		#1068
			-15.00		212.49E-06		#996
			-10.00		263.91E-06		#924
			-5.00		394.07E-06		#852
			0.00		81.317E-06		#780
			5.00		290.43E-06		#708
			10.00		172.44E-06		#636
			15.00		192.16E-06		#564
			20.00		174.81E-06		#492
			25.00		234.10E-06		#420
			30.00		486.75E-06		#348
			35.00		-3.6684E-06		#276
			40.00		402.06E-06		#245
			45.00		37.009E-06		#214
			50.00		98.297E-06		#183
			55.00		242.64E-06		#152
			60.00		240.95E-06		#121
			65.00		272.91E-06		#90
			70.00		25.277E-06		#59
			75.00		277.82E-06		#28
		END_DATA
	END_SCAN  4
	BEGIN_SCAN  5
		TASK_NAME=DOSE
		GROUP_NAME=LR_25.6
		PROGRAM=BeamAdjust 2.3.0.25
		COMMENT=G000, E221_c-dhex3.6_4
		MEAS_DATE=08-Jun-2024 21:59:05
		LINAC=HIT
		MODALITY=P
		INPLANE_AXIS_DIR=TARGET_GUN
		CROSSPLANE_AXIS_DIR=LEFT_RIGHT
		DEPTH_AXIS_DIR=UP_DOWN
		ENERGY=0.00
		SSD=0.00
		FIELD_INPLANE=50.00
		FIELD_CROSSPLANE=50.00
		FIELD_TYPE=RECTANGULAR
		GANTRY=0.00
		GANTRY_UPRIGHT_POSITION=0
		GANTRY_ROTATION=CW
		COLL_ANGLE=90.00
		SCAN_DEVICE=OCTAVIUS_1600_XDR
		ELECTROMETER=DETECTOR_INTERFACE
		ELECTROMETER_SN=5987
		DETECTOR=OCTAVIUS_1600_XDR
		DETECTOR_SN=191760
		FILTER=FF
		SCAN_CURVETYPE=CROSSPLANE_PROFILE
		SCAN_DEPTH=0.00
		SCAN_OFFAXIS_INPLANE=-55.00
		SCAN_ANGLE=0.00
		SCAN_DIAGONAL=NOT_DIAGONAL
		MEAS_PRESET=TIME_PRESET
		MEAS_TIME=25.600
		MEAS_UNIT=GY
		PRESSURE=995.30
		TEMPERATURE=19.10
		NORM_TEMPERATURE=20.00
		CORRECTION_FACTOR=1.1270
		CALIBRATION_FILE=C:\Users\Public\Documents\PTW\Common Files\Calibration Files\230554201_OCTAVIUS1600XDR_191760.cal
		CORRECTIONS=AIR_DENSITY_CORR;FACTOR_CORR;
		BEGIN_DATA
			-75.00		-122.20E-06		#1517
			-70.00		122.58E-06		#1486
			-65.00		-14.583E-06		#1455
			-60.00		-18.918E-06		#1424
			-55.00		88.218E-06		#1393
			-50.00		123.19E-06		#1362
			-45.00		220.11E-06		#1331
			-40.00		198.05E-06		#1300
			-35.00		304.29E-06		#1269
			-30.00		300.54E-06		#1211
			-25.00		377.12E-06		#1139
			-20.00		368.08E-06		#1067
			-15.00		475.98E-06		#995
			-10.00		384.16E-06		#923
			-5.00		387.76E-06		#851
			0.00		309.80E-06		#779
			5.00		304.74E-06		#707
			10.00		489.43E-06		#635
			15.00		231.20E-06		#563
			20.00		642.21E-06		#491
			25.00		223.07E-06		#419
			30.00		73.031E-06		#347
			35.00		149.17E-06		#275
			40.00		5.2407E-06		#244
			45.00		448.05E-06		#213
			50.00		222.06E-06		#182
			55.00		94.935E-06		#151
			60.00		2.8699E-06		#120
			65.00		92.784E-06		#89
			70.00		122.74E-06		#58
			75.00		-97.217E-06		#27
		END_DATA
	END_SCAN  5
	BEGIN_SCAN  6
		TASK_NAME=DOSE
		GROUP_NAME=LR_25.6
		PROGRAM=BeamAdjust 2.3.0.25
		COMMENT=G000, E221_c-dhex3.6_4
		MEAS_DATE=08-Jun-2024 21:59:05
		LINAC=HIT
		MODALITY=P
		INPLANE_AXIS_DIR=TARGET_GUN
		CROSSPLANE_AXIS_DIR=LEFT_RIGHT
		DEPTH_AXIS_DIR=UP_DOWN
		ENERGY=0.00
		SSD=0.00
		FIELD_INPLANE=50.00
		FIELD_CROSSPLANE=50.00
		FIELD_TYPE=RECTANGULAR
		GANTRY=0.00
		GANTRY_UPRIGHT_POSITION=0
		GANTRY_ROTATION=CW
		COLL_ANGLE=90.00
		SCAN_DEVICE=OCTAVIUS_1600_XDR
		ELECTROMETER=DETECTOR_INTERFACE
		ELECTROMETER_SN=5987
		DETECTOR=OCTAVIUS_1600_XDR
		DETECTOR_SN=191760
		FILTER=FF
		SCAN_CURVETYPE=CROSSPLANE_PROFILE
		SCAN_DEPTH=0.00
		SCAN_OFFAXIS_INPLANE=-50.00
		SCAN_ANGLE=0.00
		SCAN_DIAGONAL=NOT_DIAGONAL
		MEAS_PRESET=TIME_PRESET
		MEAS_TIME=25.600
		MEAS_UNIT=GY
		PRESSURE=995.30
		TEMPERATURE=19.10
		NORM_TEMPERATURE=20.00
		CORRECTION_FACTOR=1.1270
		CALIBRATION_FILE=C:\Users\Public\Documents\PTW\Common Files\Calibration Files\230554201_OCTAVIUS1600XDR_191760.cal
		CORRECTIONS=AIR_DENSITY_CORR;FACTOR_CORR;
		BEGIN_DATA
			-75.00		160.77E-06		#1516
			-70.00		167.14E-06		#1485
			-65.00		37.269E-06		#1454
			-60.00		55.388E-06		#1423
			-55.00		112.81E-06		#1392
			-50.00		109.97E-06		#1361
			-45.00		273.95E-06		#1330
			-40.00		466.49E-06		#1299
			-35.00		385.76E-06		#1268
			-30.00		800.90E-06		#1210
			-25.00		636.41E-06		#1138
			-20.00		578.62E-06		#1066
			-15.00		758.65E-06		#994
			-10.00		572.93E-06		#922
			-5.00		848.89E-06		#850
			0.00		784.73E-06		#778
			5.00		772.62E-06		#706
			10.00		867.10E-06		#634
			15.00		759.80E-06		#562
			20.00		982.72E-06		#490
			25.00		584.99E-06		#418
			30.00		629.28E-06		#346
			35.00		390.44E-06		#274
			40.00		326.90E-06		#243
			45.00		108.32E-06		#212
			50.00		56.680E-06		#181
			55.00		183.50E-06		#150
			60.00		159.25E-06		#119
			65.00		34.918E-06		#88
			70.00		150.98E-06		#57
			75.00		-175.82E-06		#26
		END_DATA
	END_SCAN  6
	BEGIN_SCAN  7
		TASK_NAME=DOSE
		GROUP_NAME=LR_25.6
		PROGRAM=BeamAdjust 2.3.0.25
		COMMENT=G000, E221_c-dhex3.6_4
		MEAS_DATE=08-Jun-2024 21:59:05
		LINAC=HIT
		MODALITY=P
		INPLANE_AXIS_DIR=TARGET_GUN
		CROSSPLANE_AXIS_DIR=LEFT_RIGHT
		DEPTH_AXIS_DIR=UP_DOWN
		ENERGY=0.00
		SSD=0.00
		FIELD_INPLANE=50.00
		FIELD_CROSSPLANE=50.00
		FIELD_TYPE=RECTANGULAR
		GANTRY=0.00
		GANTRY_UPRIGHT_POSITION=0
		GANTRY_ROTATION=CW
		COLL_ANGLE=90.00
		SCAN_DEVICE=OCTAVIUS_1600_XDR
		ELECTROMETER=DETECTOR_INTERFACE
		ELECTROMETER_SN=5987
		DETECTOR=OCTAVIUS_1600_XDR
		DETECTOR_SN=191760
		FILTER=FF
		SCAN_CURVETYPE=CROSSPLANE_PROFILE
		SCAN_DEPTH=0.00
		SCAN_OFFAXIS_INPLANE=-45.00
		SCAN_ANGLE=0.00
		SCAN_DIAGONAL=NOT_DIAGONAL
		MEAS_PRESET=TIME_PRESET
		MEAS_TIME=25.600
		MEAS_UNIT=GY
		PRESSURE=995.30
		TEMPERATURE=19.10
		NORM_TEMPERATURE=20.00
		CORRECTION_FACTOR=1.1270
		CALIBRATION_FILE=C:\Users\Public\Documents\PTW\Common Files\Calibration Files\230554201_OCTAVIUS1600XDR_191760.cal
		CORRECTIONS=AIR_DENSITY_CORR;FACTOR_CORR;
		BEGIN_DATA
			-75.00		94.466E-06		#1515
			-70.00		-27.648E-06		#1484
			-65.00		124.97E-06		#1453
			-60.00		52.056E-06		#1422
			-55.00		149.38E-06		#1391
			-50.00		246.34E-06		#1360
			-45.00		549.70E-06		#1329
			-40.00		845.90E-06		#1298
			-35.00		1.7934E-03		#1267
			-30.00		2.6054E-03		#1209
			-25.00		2.7581E-03		#1137
			-20.00		2.8717E-03		#1065
			-15.00		2.9958E-03		#993
			-10.00		2.9866E-03		#921
			-5.00		3.2210E-03		#849
			0.00		3.2734E-03		#777
			5.00		3.2325E-03		#705
			10.00		3.2562E-03		#633
			15.00		3.2707E-03		#561
			20.00		3.3797E-03		#489
			25.00		3.1432E-03		#417
			30.00		2.8048E-03		#345
			35.00		1.5604E-03		#273
			40.00		717.90E-06		#242
			45.00		377.43E-06		#211
			50.00		246.85E-06		#180
			55.00		-94.135E-06		#149
			60.00		225.37E-06		#118
			65.00		157.94E-06		#87
			70.00		124.48E-06		#56
			75.00		-27.016E-06		#25
		END_DATA
	END_SCAN  7
	BEGIN_SCAN  8
		TASK_NAME=DOSE
		GROUP_NAME=LR_25.6
		PROGRAM=BeamAdjust 2.3.0.25
		COMMENT=G000, E221_c-dhex3.6_4
		MEAS_DATE=08-Jun-2024 21:59:05
		LINAC=HIT
		MODALITY=P
		INPLANE_AXIS_DIR=TARGET_GUN
		CROSSPLANE_AXIS_DIR=LEFT_RIGHT
		DEPTH_AXIS_DIR=UP_DOWN
		ENERGY=0.00
		SSD=0.00
		FIELD_INPLANE=50.00
		FIELD_CROSSPLANE=50.00
		FIELD_TYPE=RECTANGULAR
		GANTRY=0.00
		GANTRY_UPRIGHT_POSITION=0
		GANTRY_ROTATION=CW
		COLL_ANGLE=90.00
		SCAN_DEVICE=OCTAVIUS_1600_XDR
		ELECTROMETER=DETECTOR_INTERFACE
		ELECTROMETER_SN=5987
		DETECTOR=OCTAVIUS_1600_XDR
		DETECTOR_SN=191760
		FILTER=FF
		SCAN_CURVETYPE=CROSSPLANE_PROFILE
		SCAN_DEPTH=0.00
		SCAN_OFFAXIS_INPLANE=-40.00
		SCAN_ANGLE=0.00
		SCAN_DIAGONAL=NOT_DIAGONAL
		MEAS_PRESET=TIME_PRESET
		MEAS_TIME=25.600
		MEAS_UNIT=GY
		PRESSURE=995.30
		TEMPERATURE=19.10
		NORM_TEMPERATURE=20.00
		CORRECTION_FACTOR=1.1270
		CALIBRATION_FILE=C:\Users\Public\Documents\PTW\Common Files\Calibration Files\230554201_OCTAVIUS1600XDR_191760.cal
		CORRECTIONS=AIR_DENSITY_CORR;FACTOR_CORR;
		BEGIN_DATA
			-75.00		94.135E-06		#1514
			-70.00		26.298E-06		#1483
			-65.00		353.66E-06		#1452
			-60.00		106.22E-06		#1421
			-55.00		354.82E-06		#1390
			-50.00		324.12E-06		#1359
			-45.00		1.2929E-03		#1328
			-40.00		5.3640E-03		#1297
			-35.00		13.477E-03		#1266
			-30.00		17.690E-03		#1208
			-25.00		18.696E-03		#1136
			-20.00		18.790E-03		#1064
			-15.00		18.930E-03		#992
			-10.00		19.122E-03		#920
			-5.00		19.249E-03		#848
			0.00		19.242E-03		#776
			5.00		19.758E-03		#704
			10.00		20.195E-03		#632
			15.00		20.073E-03		#560
			20.00		20.543E-03		#488
			25.00		20.522E-03		#416
			30.00		18.082E-03		#344
			35.00		10.072E-03		#272
			40.00		2.4192E-03		#241
			45.00		805.47E-06		#210
			50.00		33.425E-06		#179
			55.00		314.24E-06		#148
			60.00		97.584E-06		#117
			65.00		182.39E-06		#86
			70.00		128.99E-06		#55
			75.00		233.25E-06		#24
		END_DATA
	END_SCAN  8
	BEGIN_SCAN  9
		TASK_NAME=DOSE
		GROUP_NAME=LR_25.6
		PROGRAM=BeamAdjust 2.3.0.25
		COMMENT=G000, E221_c-dhex3.6_4
		MEAS_DATE=08-Jun-2024 21:59:05
		LINAC=HIT
		MODALITY=P
		INPLANE_AXIS_DIR=TARGET_GUN
		CROSSPLANE_AXIS_DIR=LEFT_RIGHT
		DEPTH_AXIS_DIR=UP_DOWN
		ENERGY=0.00
		SSD=0.00
		FIELD_INPLANE=50.00
		FIELD_CROSSPLANE=50.00
		FIELD_TYPE=RECTANGULAR
		GANTRY=0.00
		GANTRY_UPRIGHT_POSITION=0
		GANTRY_ROTATION=CW
		COLL_ANGLE=90.00
		SCAN_DEVICE=OCTAVIUS_1600_XDR
		ELECTROMETER=DETECTOR_INTERFACE
		ELECTROMETER_SN=5987
		DETECTOR=OCTAVIUS_1600_XDR
		DETECTOR_SN=191760
		FILTER=FF
		SCAN_CURVETYPE=CROSSPLANE_PROFILE
		SCAN_DEPTH=0.00
		SCAN_OFFAXIS_INPLANE=-35.00
		SCAN_ANGLE=0.00
		SCAN_DIAGONAL=NOT_DIAGONAL
		MEAS_PRESET=TIME_PRESET
		MEAS_TIME=25.600
		MEAS_UNIT=GY
		PRESSURE=995.30
		TEMPERATURE=19.10
		NORM_TEMPERATURE=20.00
		CORRECTION_FACTOR=1.1270
		CALIBRATION_FILE=C:\Users\Public\Documents\PTW\Common Files\Calibration Files\230554201_OCTAVIUS1600XDR_191760.cal
		CORRECTIONS=AIR_DENSITY_CORR;FACTOR_CORR;
		BEGIN_DATA
			-75.00		209.40E-06		#1513
			-70.00		-89.961E-06		#1482
			-65.00		86.648E-06		#1451
			-60.00		238.86E-06		#1420
			-55.00		252.56E-06		#1389
			-50.00		587.88E-06		#1358
			-45.00		2.8402E-03		#1327
			-40.00		17.258E-03		#1296
			-35.00		46.129E-03		#1265
			-30.00		58.439E-03		#1207
			-25.00		60.313E-03		#1135
			-20.00		60.722E-03		#1063
			-15.00		60.767E-03		#991
			-10.00		61.014E-03		#919
			-5.00		61.430E-03		#847
			0.00		61.269E-03		#775
			5.00		61.525E-03		#703
			10.00		62.031E-03		#631
			15.00		62.069E-03		#559
			20.00		63.288E-03		#487
			25.00		62.613E-03		#415
			30.00		55.655E-03		#343
			35.00		28.945E-03		#271
			40.00		5.9266E-03		#240
			45.00		996.16E-06		#209
			50.00		220.91E-06		#178
			55.00		9.3211E-06		#147
			60.00		176.51E-06		#116
			65.00		216.38E-06		#85
			70.00		98.198E-06		#54
			75.00		-33.315E-06		#23
		END_DATA
	END_SCAN  9
	BEGIN_SCAN  10
		TASK_NAME=DOSE
		GROUP_NAME=LR_25.6
		PROGRAM=BeamAdjust 2.3.0.25
		COMMENT=G000, E221_c-dhex3.6_4
		MEAS_DATE=08-Jun-2024 21:59:05
		LINAC=HIT
		MODALITY=P
		INPLANE_AXIS_DIR=TARGET_GUN
		CROSSPLANE_AXIS_DIR=LEFT_RIGHT
		DEPTH_AXIS_DIR=UP_DOWN
		ENERGY=0.00
		SSD=0.00
		FIELD_INPLANE=50.00
		FIELD_CROSSPLANE=50.00
		FIELD_TYPE=RECTANGULAR
		GANTRY=0.00
		GANTRY_UPRIGHT_POSITION=0
		GANTRY_ROTATION=CW
		COLL_ANGLE=90.00
		SCAN_DEVICE=OCTAVIUS_1600_XDR
		ELECTROMETER=DETECTOR_INTERFACE
		ELECTROMETER_SN=5987
		DETECTOR=OCTAVIUS_1600_XDR
		DETECTOR_SN=191760
		FILTER=FF
		SCAN_CURVETYPE=CROSSPLANE_PROFILE
		SCAN_DEPTH=0.00
		SCAN_OFFAXIS_INPLANE=-32.50
		SCAN_ANGLE=0.00
		SCAN_DIAGONAL=NOT_DIAGONAL
		MEAS_PRESET=TIME_PRESET
		MEAS_TIME=25.600
		MEAS_UNIT=GY
		PRESSURE=995.30
		TEMPERATURE=19.10
		NORM_TEMPERATURE=20.00
		CORRECTION_FACTOR=1.1270
		CALIBRATION_FILE=C:\Users\Public\Documents\PTW\Common Files\Calibration Files\230554201_OCTAVIUS1600XDR_191760.cal
		CORRECTIONS=AIR_DENSITY_CORR;FACTOR_CORR;
		BEGIN_DATA
			-32.50		69.741E-03		#1242
			-30.00		74.832E-03		#1206
			-27.50		76.518E-03		#1170
			-25.00		76.509E-03		#1134
			-22.50		76.161E-03		#1098
			-20.00		76.845E-03		#1062
			-17.50		76.980E-03		#1026
			-15.00		77.342E-03		#990
			-12.50		77.369E-03		#954
			-10.00		77.128E-03		#918
			-7.50		76.960E-03		#882
			-5.00		77.078E-03		#846
			-2.50		77.572E-03		#810
			0.00		77.391E-03		#774
			2.50		76.931E-03		#738
			5.00		77.537E-03		#702
			7.50		77.017E-03		#666
			10.00		77.795E-03		#630
			12.50		77.916E-03		#594
			15.00		77.546E-03		#558
			17.50		78.757E-03		#522
			20.00		78.066E-03		#486
			22.50		78.503E-03		#450
			25.00		77.357E-03		#414
			27.50		75.266E-03		#378
			30.00		68.903E-03		#342
			32.50		54.314E-03		#306
		END_DATA
	END_SCAN  10
	BEGIN_SCAN  11
		TASK_NAME=DOSE
		GROUP_NAME=LR_25.6
		PROGRAM=BeamAdjust 2.3.0.25
		COMMENT=G000, E221_c-dhex3.6_4
		MEAS_DATE=08-Jun-2024 21:59:05
		LINAC=HIT
		MODALITY=P
		INPLANE_AXIS_DIR=TARGET_GUN
		CROSSPLANE_AXIS_DIR=LEFT_RIGHT
		DEPTH_AXIS_DIR=UP_DOWN
		ENERGY=0.00
		SSD=0.00
		FIELD_INPLANE=50.00
		FIELD_CROSSPLANE=50.00
		FIELD_TYPE=RECTANGULAR
		GANTRY=0.00
		GANTRY_UPRIGHT_POSITION=0
		GANTRY_ROTATION=CW
		COLL_ANGLE=90.00
		SCAN_DEVICE=OCTAVIUS_1600_XDR
		ELECTROMETER=DETECTOR_INTERFACE
		ELECTROMETER_SN=5987
		DETECTOR=OCTAVIUS_1600_XDR
		DETECTOR_SN=191760
		FILTER=FF
		SCAN_CURVETYPE=CROSSPLANE_PROFILE
		SCAN_DEPTH=0.00
		SCAN_OFFAXIS_INPLANE=-30.00
		SCAN_ANGLE=0.00
		SCAN_DIAGONAL=NOT_DIAGONAL
		MEAS_PRESET=TIME_PRESET
		MEAS_TIME=25.600
		MEAS_UNIT=GY
		PRESSURE=995.30
		TEMPERATURE=19.10
		NORM_TEMPERATURE=20.00
		CORRECTION_FACTOR=1.1270
		CALIBRATION_FILE=C:\Users\Public\Documents\PTW\Common Files\Calibration Files\230554201_OCTAVIUS1600XDR_191760.cal
		CORRECTIONS=AIR_DENSITY_CORR;FACTOR_CORR;
		BEGIN_DATA
			-75.00		20.110E-06		#1512
			-70.00		146.28E-06		#1481
			-65.00		232.23E-06		#1450
			-60.00		265.06E-06		#1419
			-55.00		386.40E-06		#1388
			-50.00		725.06E-06		#1357
			-45.00		3.9625E-03		#1326
			-40.00		24.874E-03		#1295
			-35.00		65.571E-03		#1264
			-32.50		77.442E-03		#1241
			-30.00		82.494E-03		#1205
			-27.50		83.670E-03		#1169
			-25.00		84.337E-03		#1133
			-22.50		84.515E-03		#1097
			-20.00		84.804E-03		#1061
			-17.50		84.981E-03		#1025
			-15.00		85.065E-03		#989
			-12.50		85.204E-03		#953
			-10.00		84.579E-03		#917
			-7.50		85.145E-03		#881
			-5.00		85.172E-03		#845
			-2.50		85.457E-03		#809
			0.00		85.042E-03		#773
			2.50		85.498E-03		#737
			5.00		84.720E-03		#701
			7.50		85.581E-03		#665
			10.00		84.845E-03		#629
			12.50		85.226E-03		#593
			15.00		85.303E-03		#557
			17.50		85.287E-03		#521
			20.00		85.459E-03		#485
			22.50		85.219E-03		#449
			25.00		84.209E-03		#413
			27.50		81.899E-03		#377
			30.00		74.374E-03		#341
			32.50		59.686E-03		#305
			35.00		38.226E-03		#270
			40.00		8.0767E-03		#239
			45.00		1.1090E-03		#208
			50.00		277.13E-06		#177
			55.00		281.48E-06		#146
			60.00		61.315E-06		#115
			65.00		48.559E-06		#84
			70.00		198.17E-06		#53
			75.00		-111.58E-06		#22
		END_DATA
	END_SCAN  11
	BEGIN_SCAN  12
		TASK_NAME=DOSE
		GROUP_NAME=LR_25.6
		PROGRAM=BeamAdjust 2.3.0.25
		COMMENT=G000, E221_c-dhex3.6_4
		MEAS_DATE=08-Jun-2024 21:59:05
		LINAC=HIT
		MODALITY=P
		INPLANE_AXIS_DIR=TARGET_GUN
		CROSSPLANE_AXIS_DIR=LEFT_RIGHT
		DEPTH_AXIS_DIR=UP_DOWN
		ENERGY=0.00
		SSD=0.00
		FIELD_INPLANE=50.00
		FIELD_CROSSPLANE=50.00
		FIELD_TYPE=RECTANGULAR
		GANTRY=0.00
		GANTRY_UPRIGHT_POSITION=0
		GANTRY_ROTATION=CW
		COLL_ANGLE=90.00
		SCAN_DEVICE=OCTAVIUS_1600_XDR
		ELECTROMETER=DETECTOR_INTERFACE
		ELECTROMETER_SN=5987
		DETECTOR=OCTAVIUS_1600_XDR
		DETECTOR_SN=191760
		FILTER=FF
		SCAN_CURVETYPE=CROSSPLANE_PROFILE
		SCAN_DEPTH=0.00
		SCAN_OFFAXIS_INPLANE=-27.50
		SCAN_ANGLE=0.00
		SCAN_DIAGONAL=NOT_DIAGONAL
		MEAS_PRESET=TIME_PRESET
		MEAS_TIME=25.600
		MEAS_UNIT=GY
		PRESSURE=995.30
		TEMPERATURE=19.10
		NORM_TEMPERATURE=20.00
		CORRECTION_FACTOR=1.1270
		CALIBRATION_FILE=C:\Users\Public\Documents\PTW\Common Files\Calibration Files\230554201_OCTAVIUS1600XDR_191760.cal
		CORRECTIONS=AIR_DENSITY_CORR;FACTOR_CORR;
		BEGIN_DATA
			-32.50		79.484E-03		#1240
			-30.00		85.122E-03		#1204
			-27.50		86.423E-03		#1168
			-25.00		87.497E-03		#1132
			-22.50		87.164E-03		#1096
			-20.00		87.498E-03		#1060
			-17.50		87.259E-03		#1024
			-15.00		88.178E-03		#988
			-12.50		87.807E-03		#952
			-10.00		88.125E-03		#916
			-7.50		87.668E-03		#880
			-5.00		87.944E-03		#844
			-2.50		88.184E-03		#808
			0.00		88.431E-03		#772
			2.50		88.640E-03		#736
			5.00		87.872E-03		#700
			7.50		88.283E-03		#664
			10.00		88.227E-03		#628
			12.50		88.046E-03		#592
			15.00		87.706E-03		#556
			17.50		88.097E-03		#520
			20.00		88.064E-03		#484
			22.50		87.509E-03		#448
			25.00		86.636E-03		#412
			27.50		84.164E-03		#376
			30.00		76.298E-03		#340
			32.50		61.048E-03		#304
		END_DATA
	END_SCAN  12
	BEGIN_SCAN  13
		TASK_NAME=DOSE
		GROUP_NAME=LR_25.6
		PROGRAM=BeamAdjust 2.3.0.25
		COMMENT=G000, E221_c-dhex3.6_4
		MEAS_DATE=08-Jun-2024 21:59:05
		LINAC=HIT
		MODALITY=P
		INPLANE_AXIS_DIR=TARGET_GUN
		CROSSPLANE_AXIS_DIR=LEFT_RIGHT
		DEPTH_AXIS_DIR=UP_DOWN
		ENERGY=0.00
		SSD=0.00
		FIELD_INPLANE=50.00
		FIELD_CROSSPLANE=50.00
		FIELD_TYPE=RECTANGULAR
		GANTRY=0.00
		GANTRY_UPRIGHT_POSITION=0
		GANTRY_ROTATION=CW
		COLL_ANGLE=90.00
		SCAN_DEVICE=OCTAVIUS_1600_XDR
		ELECTROMETER=DETECTOR_INTERFACE
		ELECTROMETER_SN=5987
		DETECTOR=OCTAVIUS_1600_XDR
		DETECTOR_SN=191760
		FILTER=FF
		SCAN_CURVETYPE=CROSSPLANE_PROFILE
		SCAN_DEPTH=0.00
		SCAN_OFFAXIS_INPLANE=-25.00
		SCAN_ANGLE=0.00
		SCAN_DIAGONAL=NOT_DIAGONAL
		MEAS_PRESET=TIME_PRESET
		MEAS_TIME=25.600
		MEAS_UNIT=GY
		PRESSURE=995.30
		TEMPERATURE=19.10
		NORM_TEMPERATURE=20.00
		CORRECTION_FACTOR=1.1270
		CALIBRATION_FILE=C:\Users\Public\Documents\PTW\Common Files\Calibration Files\230554201_OCTAVIUS1600XDR_191760.cal
		CORRECTIONS=AIR_DENSITY_CORR;FACTOR_CORR;
		BEGIN_DATA
			-75.00		101.76E-06		#1511
			-70.00		27.039E-06		#1480
			-65.00		214.16E-06		#1449
			-60.00		314.69E-06		#1418
			-55.00		330.78E-06		#1387
			-50.00		1.0109E-03		#1356
			-45.00		4.3826E-03		#1325
			-40.00		26.068E-03		#1294
			-35.00		68.213E-03		#1263
			-32.50		80.478E-03		#1239
			-30.00		85.997E-03		#1203
			-27.50		87.295E-03		#1167
			-25.00		88.217E-03		#1131
			-22.50		88.247E-03		#1095
			-20.00		88.252E-03		#1059
			-17.50		89.370E-03		#1023
			-15.00		88.696E-03		#987
			-12.50		89.305E-03		#951
			-10.00		88.668E-03		#915
			-7.50		89.029E-03		#879
			-5.00		88.897E-03		#843
			-2.50		88.893E-03		#807
			0.00		88.523E-03		#771
			2.50		88.938E-03		#735
			5.00		88.621E-03		#699
			7.50		88.579E-03		#663
			10.00		88.459E-03		#627
			12.50		88.911E-03		#591
			15.00		88.515E-03		#555
			17.50		88.840E-03		#519
			20.00		89.027E-03		#483
			22.50		88.115E-03		#447
			25.00		87.449E-03		#411
			27.50		83.960E-03		#375
			30.00		77.239E-03		#339
			32.50		61.368E-03		#303
			35.00		39.999E-03		#269
			40.00		8.1692E-03		#238
			45.00		1.4323E-03		#207
			50.00		559.42E-06		#176
			55.00		384.73E-06		#145
			60.00		325.71E-06		#114
			65.00		175.11E-06		#83
			70.00		146.93E-06		#52
			75.00		94.826E-06		#21
		END_DATA
	END_SCAN  13
	BEGIN_SCAN  14
		TASK_NAME=DOSE
		GROUP_NAME=LR_25.6
		PROGRAM=BeamAdjust 2.3.0.25
		COMMENT=G000, E221_c-dhex3.6_4
		MEAS_DATE=08-Jun-2024 21:59:05
		LINAC=HIT
		MODALITY=P
		INPLANE_AXIS_DIR=TARGET_GUN
		CROSSPLANE_AXIS_DIR=LEFT_RIGHT
		DEPTH_AXIS_DIR=UP_DOWN
		ENERGY=0.00
		SSD=0.00
		FIELD_INPLANE=50.00
		FIELD_CROSSPLANE=50.00
		FIELD_TYPE=RECTANGULAR
		GANTRY=0.00
		GANTRY_UPRIGHT_POSITION=0
		GANTRY_ROTATION=CW
		COLL_ANGLE=90.00
		SCAN_DEVICE=OCTAVIUS_1600_XDR
		ELECTROMETER=DETECTOR_INTERFACE
		ELECTROMETER_SN=5987
		DETECTOR=OCTAVIUS_1600_XDR
		DETECTOR_SN=191760
		FILTER=FF
		SCAN_CURVETYPE=CROSSPLANE_PROFILE
		SCAN_DEPTH=0.00
		SCAN_OFFAXIS_INPLANE=-22.50
		SCAN_ANGLE=0.00
		SCAN_DIAGONAL=NOT_DIAGONAL
		MEAS_PRESET=TIME_PRESET
		MEAS_TIME=25.600
		MEAS_UNIT=GY
		PRESSURE=995.30
		TEMPERATURE=19.10
		NORM_TEMPERATURE=20.00
		CORRECTION_FACTOR=1.1270
		CALIBRATION_FILE=C:\Users\Public\Documents\PTW\Common Files\Calibration Files\230554201_OCTAVIUS1600XDR_191760.cal
		CORRECTIONS=AIR_DENSITY_CORR;FACTOR_CORR;
		BEGIN_DATA
			-32.50		79.677E-03		#1238
			-30.00		85.590E-03		#1202
			-27.50		87.063E-03		#1166
			-25.00		87.854E-03		#1130
			-22.50		87.873E-03		#1094
			-20.00		88.829E-03		#1058
			-17.50		88.746E-03		#1022
			-15.00		88.175E-03		#986
			-12.50		88.425E-03		#950
			-10.00		89.339E-03		#914
			-7.50		88.429E-03		#878
			-5.00		88.337E-03		#842
			-2.50		88.798E-03		#806
			0.00		88.732E-03		#770
			2.50		88.983E-03		#734
			5.00		88.541E-03		#698
			7.50		88.513E-03		#662
			10.00		88.195E-03		#626
			12.50		88.541E-03		#590
			15.00		88.509E-03		#554
			17.50		88.318E-03		#518
			20.00		88.367E-03		#482
			22.50		88.169E-03		#446
			25.00		86.755E-03		#410
			27.50		84.610E-03		#374
			30.00		77.133E-03		#338
			32.50		61.366E-03		#302
		END_DATA
	END_SCAN  14
	BEGIN_SCAN  15
		TASK_NAME=DOSE
		GROUP_NAME=LR_25.6
		PROGRAM=BeamAdjust 2.3.0.25
		COMMENT=G000, E221_c-dhex3.6_4
		MEAS_DATE=08-Jun-2024 21:59:05
		LINAC=HIT
		MODALITY=P
		INPLANE_AXIS_DIR=TARGET_GUN
		CROSSPLANE_AXIS_DIR=LEFT_RIGHT
		DEPTH_AXIS_DIR=UP_DOWN
		ENERGY=0.00
		SSD=0.00
		FIELD_INPLANE=50.00
		FIELD_CROSSPLANE=50.00
		FIELD_TYPE=RECTANGULAR
		GANTRY=0.00
		GANTRY_UPRIGHT_POSITION=0
		GANTRY_ROTATION=CW
		COLL_ANGLE=90.00
		SCAN_DEVICE=OCTAVIUS_1600_XDR
		ELECTROMETER=DETECTOR_INTERFACE
		ELECTROMETER_SN=5987
		DETECTOR=OCTAVIUS_1600_XDR
		DETECTOR_SN=191760
		FILTER=FF
		SCAN_CURVETYPE=CROSSPLANE_PROFILE
		SCAN_DEPTH=0.00
		SCAN_OFFAXIS_INPLANE=-20.00
		SCAN_ANGLE=0.00
		SCAN_DIAGONAL=NOT_DIAGONAL
		MEAS_PRESET=TIME_PRESET
		MEAS_TIME=25.600
		MEAS_UNIT=GY
		PRESSURE=995.30
		TEMPERATURE=19.10
		NORM_TEMPERATURE=20.00
		CORRECTION_FACTOR=1.1270
		CALIBRATION_FILE=C:\Users\Public\Documents\PTW\Common Files\Calibration Files\230554201_OCTAVIUS1600XDR_191760.cal
		CORRECTIONS=AIR_DENSITY_CORR;FACTOR_CORR;
		BEGIN_DATA
			-75.00		94.962E-06		#1510
			-70.00		78.694E-06		#1479
			-65.00		317.60E-06		#1448
			-60.00		3.6147E-06		#1417
			-55.00		221.44E-06		#1386
			-50.00		510.53E-06		#1355
			-45.00		4.4926E-03		#1324
			-40.00		26.057E-03		#1293
			-35.00		68.014E-03		#1262
			-32.50		80.172E-03		#1237
			-30.00		85.418E-03		#1201
			-27.50		87.221E-03		#1165
			-25.00		88.638E-03		#1129
			-22.50		88.518E-03		#1093
			-20.00		88.226E-03		#1057
			-17.50		88.486E-03		#1021
			-15.00		89.368E-03		#985
			-12.50		89.306E-03		#949
			-10.00		88.807E-03		#913
			-7.50		89.130E-03		#877
			-5.00		88.507E-03		#841
			-2.50		88.659E-03		#805
			0.00		88.419E-03		#769
			2.50		88.604E-03		#733
			5.00		88.670E-03		#697
			7.50		88.544E-03		#661
			10.00		88.616E-03		#625
			12.50		88.942E-03		#589
			15.00		88.903E-03		#553
			17.50		88.868E-03		#517
			20.00		89.127E-03		#481
			22.50		88.695E-03		#445
			25.00		88.032E-03		#409
			27.50		84.689E-03		#373
			30.00		76.975E-03		#337
			32.50		61.682E-03		#301
			35.00		40.308E-03		#268
			40.00		8.7083E-03		#237
			45.00		1.5172E-03		#206
			50.00		415.30E-06		#175
			55.00		348.44E-06		#144
			60.00		345.14E-06		#113
			65.00		203.75E-06		#82
			70.00		-86.045E-06		#51
			75.00		105.30E-06		#20
		END_DATA
	END_SCAN  15
	BEGIN_SCAN  16
		TASK_NAME=DOSE
		GROUP_NAME=LR_25.6
